"","ppg","time"
"1",70.26963,282.94775
"2",70.14511,282.96112
"3",70.27451,282.97443
"4",70.96544,282.9878
"5",72.54017,283.0011
"6",75.18913,283.01447
"7",78.83177,283.02777
"8",83.09453,283.04114
"9",87.37194,283.05444
"10",90.99748,283.0678
"11",93.49508,283.08112
"12",94.66941,283.09448
"13",94.61326,283.1078
"14",93.592735,283.12115
"15",91.95941,283.13446
"16",90.057526,283.14783
"17",88.16785,283.16113
"18",86.47593,283.1745
"19",85.04768,283.1878
"20",83.85138,283.20117
"21",82.80644,283.21448
"22",81.829865,283.22784
"23",80.88258,283.24115
"24",79.97681,283.25452
"25",79.17601,283.26782
"26",78.54124,283.2812
"27",78.10666,283.2945
"28",77.85031,283.30786
"29",77.7087,283.32117
"30",77.593956,283.33453
"31",77.435265,283.34784
"32",77.18623,283.3612
"33",76.82979,283.3745
"34",76.368355,283.38788
"35",75.826355,283.40118
"36",75.22331,283.41455
"37",74.59098,283.42786
"38",73.951324,283.44122
"39",73.33608,283.45453
"40",72.762344,283.4679
"41",72.24719,283.4812
"42",71.783325,283.49457
"43",71.36828,283.50787
"44",70.99718,283.52124
"45",70.66514,283.53455
"46",70.37461,283.5479
"47",70.135345,283.56122
"48",69.95468,283.5746
"49",69.90585,283.5879
"50",70.19638,283.60126
"51",71.131454,283.61456
"52",73.0016,283.62793
"53",75.894714,283.64124
"54",79.62768,283.6546
"55",83.73174,283.6679
"56",87.57702,283.68127
"57",90.57511,283.69458
"58",92.3769,283.70795
"59",92.94331,283.72125
"60",92.44526,283.73462
"61",91.175705,283.74792
"62",89.45693,283.7613
"63",87.586784,283.7746
"64",85.787445,283.78796
"65",84.190735,283.80127
"66",82.84062,283.81464
"67",81.705345,283.82794
"68",80.71656,283.8413
"69",79.815674,283.8546
"70",78.98314,283.86798
"71",78.24826,283.8813
"72",77.662315,283.89465
"73",77.24971,283.90796
"74",77.01778,283.92133
"75",76.92012,283.93463
"76",76.88106,283.948
"77",76.82979,283.9613
"78",76.70527,283.97467
"79",76.470894,283.98798
"80",76.10956,284.00134
"81",75.63348,284.01465
"82",75.0695,284.028
"83",74.459145,284.04132
"84",73.846344,284.0547
"85",73.26528,284.068
"86",72.73548,284.08136
"87",72.26673,284.09467
"88",71.86145,284.10803
"89",71.50988,284.12134
"90",71.20714,284.1347
"91",70.94347,284.148
"92",70.71641,284.16138
"93",70.51377,284.17468
"94",70.328224,284.18805
"95",70.18417,284.20135
"96",70.18173,284.21472
"97",70.54795,284.22803
"98",71.59045,284.2414
"99",73.531395,284.2547
"100",76.36591,284.26807
"101",79.81079,284.28137
"102",83.36797,284.29474
"103",86.45396,284.30804
"104",88.60975,284.3214
"105",89.652245,284.33472
"106",89.66689,284.34808
"107",88.90028,284.3614
"108",87.64294,284.37476
"109",86.17807,284.38806
"110",84.735176,284.40143
"111",83.458305,284.41473
"112",82.406044,284.4281
"113",81.55642,284.4414
"114",80.84352,284.45477
"115",80.19653,284.46808
"116",79.58129,284.48145
"117",79.00267,284.49475
"118",78.502174,284.50812
"119",78.12131,284.52142
"120",77.87961,284.5348
"121",77.75754,284.5481
"122",77.70382,284.56146
"123",77.65011,284.57477
"124",77.54269,284.58813
"125",77.34249,284.60144
"126",77.02998,284.6148
"127",76.610054,284.6281
"128",76.10956,284.64148
"129",75.56756,284.6548
"130",75.020676,284.66815
"131",74.50065,284.68146
"132",74.03189,284.69482
"133",73.619286,284.70813
"134",73.25796,284.7215
"135",72.92348,284.7348
"136",72.5597,284.74817
"137",72.12024,284.76147
"138",71.6173,284.77484
"139",71.10216,284.78815
"140",70.63096,284.8015
"141",70.259865,284.81482
"142",70.10605,284.8282
"143",70.364845,284.8415
"144",71.27306,284.85486
"145",72.98451,284.86816
"146",75.50164,284.88153
"147",78.57053,284.89484
"148",81.71267,284.9082
"149",84.37385,284.9215
"150",86.13901,284.93488
"151",86.87877,284.94818
"152",86.70298,284.96155
"153",85.86557,284.97485
"154",84.627754,284.98822
"155",83.15312,285.00153
"156",81.50515,285.0149
"157",79.68139,285.0282
"158",77.713585,285.04156
"159",75.72381,285.05487
"160",73.88052,285.06824
"161",72.33997,285.08154
"162",71.23155,285.0949
"163",70.61631,285.10822
"164",70.47227,285.12158
"165",70.72129,285.1349
"166",71.275505,285.14825
"167",72.06653,285.16156
"168",73.00404,285.17493
"169",73.99771,285.18823
"170",74.95476,285.2016
"171",75.80194,285.2149
"172",76.54902,285.22827
"173",77.14961,285.24158
"174",77.4963,285.25494
"175",77.4963,285.26825
"176",77.15938,285.28162
"177",76.52216,285.29492
"178",75.65789,285.3083
"179",74.71549,285.3216
"180",73.863434,285.33496
"181",73.14809,285.34827
"182",72.51087,285.36163
"183",71.93225,285.37494
"184",71.37316,285.3883
"185",70.74326,285.4016
"186",69.98886,285.41498
"187",69.239334,285.42828
"188",68.86336,285.44165
"189",69.34188,285.45496
"190",71.05821,285.46832
"191",74.127106,285.48163
"192",78.24826,285.495
"193",82.78447,285.5083
"194",86.92027,285.52167
"195",90.02823,285.53497
"196",91.85199,285.54834
"197",92.49409,285.56165
"198",92.22797,285.575
"199",91.393,285.58832
"200",90.33097,285.60168
"201",89.28115,285.615
"202",88.36317,285.62836
"203",87.586784,285.64166
"204",86.93736,285.65503
"205",86.3563,285.66833
"206",85.767914,285.6817
"207",85.15022,285.695
"208",84.525215,285.70837
"209",83.90753,285.72168
"210",83.3167,285.73505
"211",82.80888,285.74835
"212",82.43046,285.76172
"213",82.18875,285.77502
"214",82.05936,285.7884
"215",82.01785,285.8017
"216",81.99832,285.81506
"217",81.917755,285.82837
"218",81.71267,285.84174
"219",81.3904,285.85504
"220",80.98024,285.8684
"221",80.51881,285.8817
"222",80.042725,285.89508
"223",79.569084,285.9084
"224",79.114975,285.92175
"225",78.68528,285.93506
"226",78.28489,285.94843
"227",77.91135,285.96173
"228",77.57198,285.9751
"229",77.27657,285.9884
"230",77.04219,286.00177
"231",76.93477,286.01508
"232",77.15694,286.02844
"233",77.994354,286.04175
"234",79.676506,286.0551
"235",82.210724,286.06842
"236",85.333336,286.0818
"237",88.551155,286.0951
"238",91.27581,286.10846
"239",93.033646,286.12177
"240",93.65133,286.13513
"241",93.25338,286.14844
"242",92.12543,286.1618
"243",90.58976,286.1751
"244",88.93202,286.18848
"245",87.34753,286.20178
"246",85.96323,286.21515
"247",84.81819,286.22845
"248",83.888,286.24182
"249",83.11406,286.25513
"250",82.44999,286.2685
"251",81.85916,286.2818
"252",81.3489,286.29517
"253",80.9485,286.30847
"254",80.689705,286.32184
"255",80.57496,286.33514
"256",80.570076,286.3485
"257",80.60914,286.36182
"258",80.635994,286.37518
"259",80.584724,286.3885
"260",80.42115,286.40186
"261",80.14282,286.41516
"262",79.76929,286.42853
"263",79.327385,286.44183
"264",78.84642,286.4552
"265",78.35325,286.4685
"266",77.8674,286.48187
"267",77.40597,286.49518
"268",76.9836,286.50854
"269",76.61738,286.52185
"270",76.31953,286.53522
"271",76.087585,286.54852
"272",75.914246,286.5619
"273",75.82391,286.5752
"274",75.95087,286.58856
"275",76.54658,286.60187
"276",77.87961,286.61523
"277",80.0354,286.62854
"278",82.84306,286.6419
"279",85.889984,286.6552
"280",88.61707,286.66858
"281",90.51408,286.6819
"282",91.334404,286.69525
"283",91.121994,286.70856
"284",90.11856,286.72192
"285",88.63416,286.73523
"286",86.94469,286.7486
"287",85.28451,286.7619
"288",83.80255,286.77527
"289",82.56962,286.78857
"290",81.5906,286.80194
"291",80.82887,286.81525
"292",80.218506,286.8286
"293",79.73266,286.84192
"294",79.36889,286.8553
"295",79.151596,286.8686
"296",79.10521,286.88196
"297",79.21507,286.89526
"298",79.4226,286.90863
"299",79.64721,286.92194
"300",79.80591,286.9353
"301",79.85474,286.9486
"302",79.76929,286.96198
"303",79.56664,286.97528
"304",79.26879,286.98865
"305",78.90257,287.00195
"306",78.49241,287.01532
"307",78.06027,287.02863
"308",77.61593,287.042
"309",77.19356,287.0553
"310",76.80293,287.06866
"311",76.45869,287.08197
"312",76.16083,287.09534
"313",75.91669,287.10864
"314",75.72381,287.122
"315",75.60662,287.1353
"316",75.699394,287.14868
"317",76.26826,287.162
"318",77.5671,287.17535
"319",79.69604,287.18866
"320",82.48173,287.20203
"321",85.506676,287.21533
"322",88.20935,287.2287
"323",90.10391,287.242
"324",90.93889,287.25537
"325",90.775314,287.26868
"326",89.86954,287.28204
"327",88.52918,287.29535
"328",87.027695,287.30872
"329",85.57259,287.32202
"330",84.29328,287.3354
"331",83.243454,287.3487
"332",82.408485,287.36206
"333",81.72976,287.37537
"334",81.13649,287.38873
"335",80.59693,287.40204
"336",80.10864,287.4154
"337",79.71557,287.4287
"338",79.466545,287.44208
"339",79.381096,287.45538
"340",79.43969,287.46875
"341",79.58373,287.48206
"342",79.73754,287.49542
"343",79.83276,287.50873
"344",79.823,287.5221
"345",79.69604,287.5354
"346",79.45922,287.54877
"347",79.13695,287.56207
"348",78.75609,287.57544
"349",78.34348,287.58875
"350",77.92844,287.6021
"351",77.53536,287.61542
"352",77.17647,287.62878
"353",76.86641,287.6421
"354",76.59785,287.65546
"355",76.36347,287.66876
"356",76.16815,287.68213
"357",76.050964,287.69543
"358",76.16571,287.7088
"359",76.77608,287.7221
"360",78.1091,287.73547
"361",80.19165,287.74878
"362",82.80888,287.76215
"363",85.53353,287.77545
"364",87.84314,287.78882
"365",89.31777,287.80212
"366",89.80362,287.8155
"367",89.41787,287.8288
"368",88.4242,287.84216
"369",87.113144,287.85547
"370",85.731285,287.86884
"371",84.454414,287.88214
"372",83.372856,287.8955
"373",82.511024,287.9088
"374",81.82254,287.92218
"375",81.23903,287.9355
"376",80.689705,287.94885
"377",80.147705,287.96216
"378",79.635,287.97552
"379",79.21507,287.98883
"380",78.94652,288.0022
"381",78.86107,288.0155
"382",78.93675,288.02887
"383",79.11253,288.04218
"384",79.30297,288.05554
"385",79.43481,288.06885
"386",79.45434,288.0822
"387",79.34203,288.09552
"388",79.11009,288.1089
"389",78.78294,288.1222
"390",78.399635,288.13556
"391",77.98947,288.14886
"392",77.58907,288.16223
"393",77.21797,288.17554
"394",76.8835,288.1889
"395",76.592964,288.2022
"396",76.34638,288.21558
"397",76.14374,288.22888
"398",75.98505,288.24225
"399",75.911804,288.25555
"400",76.06561,288.26892
"401",76.67353,288.28223
"402",77.945526,288.2956
"403",79.91333,288.3089
"404",82.38163,288.32227
"405",84.95247,288.33557
"406",87.13512,288.34894
"407",88.534065,288.36224
"408",88.9955,288.3756
"409",88.6244,288.38892
"410",87.67956,288.40228
"411",86.431984,288.4156
"412",85.11604,288.42896
"413",83.90021,288.44226
"414",82.86015,288.45563
"415",82.005646,288.46893
"416",81.304955,288.4823
"417",80.68482,288.4956
"418",80.08911,288.50897
"419",79.51293,288.52228
"420",78.99779,288.53564
"421",78.61204,288.54895
"422",78.41184,288.56232
"423",78.41428,288.57562
"424",78.58274,288.589
"425",78.83177,288.6023
"426",79.06615,288.61566
"427",79.21019,288.62897
"428",79.219955,288.64233
"429",79.093,288.65564
"430",78.84642,288.669
"431",78.521706,288.6823
"432",78.153046,288.69568
"433",77.77463,288.70898
"434",77.40597,288.72235
"435",77.066605,288.73566
"436",76.76631,288.74902
"437",76.50019,288.76233
"438",76.265816,288.7757
"439",76.053406,288.789
"440",75.85809,288.80237
"441",75.67742,288.81567
"442",75.53094,288.82904
"443",75.48943,288.84235
"444",75.72869,288.8557
"445",76.47822,288.86902
"446",77.90402,288.8824
"447",79.95972,288.8957
"448",82.374306,288.90906
"449",84.72297,288.92236
"450",86.55894,288.93573
"451",87.56481,288.94904
"452",87.67712,288.9624
"453",87.064316,288.9757
"454",85.97543,288.98907
"455",84.66682,289.00238
"456",83.33868,289.01575
"457",82.13016,289.02905
"458",81.09987,289.04242
"459",80.24292,289.05573
"460",79.5227,289.0691
"461",78.90013,289.0824
"462",78.37278,289.09576
"463",77.97238,289.10907
"464",77.76242,289.12244
"465",77.78195,289.13574
"466",78.01877,289.1491
"467",78.397194,289.1624
"468",78.819565,289.17578
"469",79.17601,289.1891
"470",79.395744,289.20245
"471",79.449455,289.21576
"472",79.3518,289.22913
"473",79.13695,289.24243
"474",78.839096,289.2558
"475",78.49241,289.2691
"476",78.1384,289.28247
"477",77.7966,289.29578
"478",77.49386,289.30914
"479",77.24971,289.32245
"480",77.07393,289.33582
"481",76.96651,289.34912
"482",76.912796,289.3625
"483",76.89815,289.3758
"484",76.89815,289.38916
"485",76.893265,289.40247
"486",76.87129,289.41583
"487",76.822464,289.42914
"488",76.76631,289.4425
"489",76.79805,289.4558
"490",77.11299,289.46918
"491",77.93088,289.48248
"492",79.361565,289.49585
"493",81.30984,289.50916
"494",83.47784,289.52252
"495",85.45052,289.53583
"496",86.83482,289.5492
"497",87.39391,289.5625
"498",87.14244,289.57587
"499",86.2562,289.58917
"500",84.979324,289.60254
"501",83.52178,289.61584
"502",82.056915,289.6292
"503",80.69459,289.64252
"504",79.49828,289.65588
"505",78.49973,289.6692
"506",77.733116,289.68256
"507",77.222855,289.69586
"508",76.995804,289.70923
"509",77.066605,289.72253
"510",77.40353,289.7359
"511",77.9382,289.7492
"512",78.553444,289.76257
"513",79.11986,289.77588
"514",79.54223,289.78925
"515",79.75952,289.80255
"516",79.76196,289.81592
"517",79.57885,289.82922
"518",79.256584,289.8426
"519",78.84886,289.8559
"520",78.4094,289.86926
"521",77.98215,289.88257
"522",77.59884,289.89594
"523",77.28634,289.90924
"524",77.05684,289.9226
"525",76.90547,289.9359
"526",76.82735,289.94928
"527",76.805374,289.9626
"528",76.822464,289.97595
"529",76.859085,289.98926
"530",76.90547,290.00262
"531",76.94942,290.01593
"532",76.978714,290.0293
"533",76.995804,290.0426
"534",77.00069,290.05597
"535",76.995804,290.06927
"536",76.981155,290.08264
"537",76.978714,290.09595
"538",77.04463,290.1093
"539",77.33761,290.12262
"540",78.07248,290.136
"541",79.38842,290.1493
"542",81.234146,290.16266
"543",83.35821,290.17596
"544",85.37484,290.18933
"545",86.869,290.20264
"546",87.56725,290.216
"547",87.42809,290.2293
"548",86.60532,290.24268
"549",85.330894,290.25598
"550",83.826965,290.26935
"551",82.27421,290.28265
"552",80.79225,290.29602
"553",79.4641,290.30933
"554",78.34348,290.3227
"555",77.47921,290.336
"556",76.925,290.34937
"557",76.717476,290.36267
"558",76.88594,290.37604
"559",77.39864,290.38934
"560",78.16525,290.4027
"561",79.03929,290.41602
"562",79.85718,290.42938
"563",80.48951,290.4427
"564",80.85817,290.45605
"565",80.95094,290.46936
"566",80.80446,290.48273
"567",80.48463,290.49603
"568",80.05249,290.5094
"569",79.56664,290.5227
"570",79.07347,290.53607
"571",78.60227,290.54938
"572",78.17746,290.56274
"573",77.8259,290.57605
"574",77.54757,290.58942
"575",77.34249,290.60272
"576",77.21065,290.6161
"577",77.14473,290.6294
"578",77.13252,290.64276
"579",77.1667,290.65607
"580",77.23018,290.66943
"581",77.30831,290.68274
"582",77.38155,290.6961
"583",77.44747,290.7094
"584",77.49386,290.72278
"585",77.52071,290.73608
"586",77.53048,290.74945
"587",77.52804,290.76276
"588",77.53292,290.77612
"589",77.645226,290.78943
"590",78.05539,290.8028
"591",78.96849,290.8161
"592",80.47242,290.82947
"593",82.45243,290.84277
"594",84.60822,290.85614
"595",86.522316,290.86945
"596",87.80896,290.8828
"597",88.255745,290.89612
"598",87.88464,290.9095
"599",86.869,290.9228
"600",85.44076,290.93616
"601",83.807434,290.94946
"602",82.1326,290.96283
"603",80.54078,290.97614
"604",79.11253,290.9895
"605",77.91379,291.0028
"606",76.995804,291.01617
"607",76.42695,291.02948
"608",76.24872,291.04285
"609",76.48798,291.05615
"610",77.11055,291.06952
"611",78.013885,291.08282
"612",79.03197,291.0962
"613",79.98657,291.1095
"614",80.73609,291.12286
"615",81.197525,291.13617
"616",81.356224,291.14954
"617",81.25124,291.16284
"618",80.953384,291.1762
"619",80.53101,291.1895
"620",80.045166,291.20288
"621",79.54955,291.2162
"622",79.080795,291.22955
"623",78.66819,291.24286
"624",78.32151,291.25623
"625",78.04074,291.26953
"626",77.823456,291.2829
"627",77.659874,291.2962
"628",77.54269,291.30957
"629",77.469444,291.32288
"630",77.44015,291.33624
"631",77.437706,291.34955
"632",77.452354,291.3629
"633",77.47433,291.37622
"634",77.486534,291.3896
"635",77.48409,291.4029
"636",77.467,291.41626
"637",77.44259,291.42957
"638",77.42306,291.44293
"639",77.4963,291.45624
"640",77.838104,291.4696
"641",78.66819,291.4829
"642",80.10864,291.49628
"643",82.09598,291.50958
"644",84.3592,291.52295
"645",86.48325,291.53625
"646",88.05554,291.54962
"647",88.80751,291.56293
"648",88.70496,291.5763
"649",87.89441,291.5896
"650",86.505226,291.60297
"651",84.65217,291.61627
"652",82.496376,291.62964
"653",80.255135,291.64294
"654",78.12863,291.6563
"655",76.30488,291.66962
"656",74.94743,291.68298
"657",74.13199,291.6963
"658",73.81949,291.70966
"659",73.944,291.72296
"660",74.47135,291.73633
"661",75.338066,291.74963
"662",76.422066,291.763
"663",77.56466,291.7763
"664",78.60471,291.78967
"665",79.42504,291.80298
"666",79.95239,291.81635
"667",80.17944,291.82965
"668",80.14526,291.84302
"669",79.92554,291.85632
"670",79.57885,291.8697
"671",79.17845,291.883
"672",78.76341,291.89636
"673",78.37034,291.90967
"674",78.02121,291.92303
"675",77.730675,291.93634
"676",77.50851,291.9497
"677",77.3547,291.963
"678",77.26681,291.97638
"679",77.24483,291.9897
"680",77.28634,292.00305
"681",77.38888,292.01636
"682",77.54269,292.02972
"683",77.738,292.04303
"684",77.943085,292.0564
"685",78.12863,292.0697
"686",78.27024,292.08307
"687",78.35569,292.09637
"688",78.4094,292.10974
"689",78.52903,292.12305
"690",78.924545,292.1364
"691",79.84497,292.14972
"692",81.427025,292.1631
"693",83.58282,292.1764
"694",86.01694,292.18976
"695",88.289925,292.20306
"696",89.95987,292.21643
"697",90.75578,292.22974
"698",90.64835,292.2431
"699",89.79874,292.2564
"700",88.429085,292.26978
"701",86.76402,292.28308
"702",84.981766,292.29645
"703",83.21904,292.30975
"704",81.583275,292.32312
"705",80.14526,292.33643
"706",78.96849,292.3498
"707",78.099335,292.3631
"708",77.591515,292.37646
"709",77.48409,292.38977
"710",77.786835,292.40314
"711",78.45335,292.41644
"712",79.37621,292.4298
"713",80.39918,292.4431
"714",81.36355,292.45648
"715",82.13504,292.4698
"716",82.633095,292.48315
"717",82.85283,292.49646
"718",82.82353,292.50983
"719",82.61112,292.52313
"720",82.28397,292.5365
"721",81.8909,292.5498
"722",81.47585,292.56317
"723",81.06325,292.57648
"724",80.66773,292.58984
"725",80.2942,292.60315
"726",79.954834,292.61652
"727",79.6643,292.62982
"728",79.42748,292.6432
"729",79.2517,292.6565
"730",79.12962,292.66986
"731",79.04173,292.68317
"732",78.96849,292.69653
"733",78.90013,292.70984
"734",78.82201,292.7232
"735",78.73655,292.7365
"736",78.64866,292.74988
"737",78.590065,292.76318
"738",78.66331,292.77655
"739",79.07591,292.78986
"740",80.05493,292.80322
"741",81.70779,292.81653
"742",83.929504,292.8299
"743",86.39292,292.8432
"744",88.64637,292.85657
"745",90.26017,292.86987
"746",90.97795,292.88324
"747",90.794846,292.89655
"748",89.86954,292.9099
"749",88.43641,292.92322
"750",86.71519,292.93658
"751",84.88167,292.9499
"752",83.08232,292.96326
"753",81.41726,292.97656
"754",79.94263,292.98993
"755",78.71702,293.00323
"756",77.789276,293.0166
"757",77.205765,293.0299
"758",77.01778,293.04327
"759",77.2375,293.05658
"760",77.81613,293.06995
"761",78.643776,293.08325
"762",79.5642,293.09662
"763",80.411385,293.10992
"764",81.05348,293.1233
"765",81.4197,293.1366
"766",81.50027,293.14996
"767",81.324486,293.16327
"768",80.955826,293.17664
"769",80.46021,293.18994
"770",79.8938,293.2033
"771",79.310295,293.2166
"772",78.746315,293.22998
"773",78.23117,293.2433
"774",77.789276,293.25665
"775",77.4255,293.26996
"776",77.14473,293.28333
"777",76.93965,293.29663
"778",76.80293,293.31
"779",76.715034,293.3233
"780",76.66865,293.33667
"781",76.64912,293.34998
"782",76.646675,293.36334
"783",76.65156,293.37665
"784",76.66621,293.39
"785",76.75166,293.40332
"786",77.07149,293.4167
"787",77.88205,293.43
"788",79.361565,293.44336
"789",81.51003,293.45667
"790",84.09552,293.47003
"791",86.70542,293.48334
"792",88.87343,293.4967
"793",90.24063,293.51
"794",90.67521,293.52338
"795",90.269936,293.53668
"796",89.22743,293.55005
"797",87.765015,293.56335
"798",86.080414,293.57672
"799",84.34699,293.59003
"800",82.701454,293.6034
"801",81.22926,293.6167
"802",79.9939,293.63007
"803",79.03441,293.64337
"804",78.38499,293.65674
"805",78.065155,293.67004
"806",78.099335,293.6834
"807",78.467995,293.69672
"808",79.097885,293.71008
"809",79.87427,293.7234
"810",80.6482,293.73676
"811",81.29519,293.75006
"812",81.71267,293.76343
"813",81.864044,293.77673
"814",81.761505,293.7901
"815",81.444115,293.8034
"816",80.97536,293.81677
"817",80.41871,293.83008
"818",79.83032,293.84344
"819",79.2517,293.85675
"820",78.71458,293.87012
"821",78.24338,293.88342
"822",77.838104,293.8968
"823",77.51095,293.9101
"824",77.25216,293.92346
"825",77.051956,293.93677
"826",76.89815,293.95013
"827",76.77608,293.96344
"828",76.67109,293.9768
"829",76.57343,293.9901
"830",76.48798,294.00348
"831",76.45869,294.01678
"832",76.646675,294.03015
"833",77.30831,294.04346
"834",78.68772,294.05682
"835",80.82887,294.07013
"836",83.53887,294.0835
"837",86.42222,294.0968
"838",88.9662,294.11017
"839",90.72892,294.12347
"840",91.49798,294.13684
"841",91.31487,294.15015
"842",90.3798,294.1635
"843",88.9247,294.17682
"844",87.17906,294.1902
"845",85.34554,294.2035
"846",83.57549,294.21686
"847",81.97879,294.23016
"848",80.621346,294.24353
"849",79.53979,294.25684
"850",78.77318,294.2702
"851",78.35081,294.2835
"852",78.28001,294.29688
"853",78.54612,294.31018
"854",79.080795,294.32355
"855",79.781494,294.33685
"856",80.50172,294.35022
"857",81.10719,294.36353
"858",81.50027,294.3769
"859",81.654076,294.3902
"860",81.566185,294.40356
"861",81.26833,294.41687
"862",80.816666,294.43024
"863",80.2649,294.44354
"864",79.6643,294.4569
"865",79.05638,294.4702
"866",78.4802,294.48358
"867",77.96506,294.4969
"868",77.51827,294.51025
"869",77.13985,294.52356
"870",76.824905,294.53693
"871",76.561226,294.55023
"872",76.33662,294.5636
"873",76.1413,294.5769
"874",75.96796,294.59027
"875",75.83612,294.60358
"876",75.83856,294.61694
"877",76.20233,294.63025
"878",77.205765,294.64362
"879",79.01732,294.65692
"880",81.58572,294.6703
"881",84.61555,294.6836
"882",87.61608,294.69696
"883",90.05997,294.71027
"884",91.58587,294.72363
"885",92.0766,294.73694
"886",91.65179,294.7503
"887",90.528725,294.7636
"888",88.96132,294.77698
"889",87.186386,294.79028
"890",85.40414,294.80365
"891",83.756165,294.81696
"892",82.32304,294.83032
"893",81.146255,294.84363
"894",80.23804,294.857
"895",79.61303,294.8703
"896",79.28832,294.88367
"897",79.27123,294.89697
"898",79.534904,294.91034
"899",80.00366,294.92365
"900",80.56275,294.937
"901",81.08522,294.95032
"902",81.47097,294.96368
"903",81.651634,294.977
"904",81.60769,294.99036
"905",81.356224,295.00366
"906",80.94118,295.01703
"907",80.411385,295.03033
"908",79.818115,295.0437
"909",79.21507,295.057
"910",78.63157,295.07037
"911",78.08957,295.08368
"912",77.60128,295.09705
"913",77.1667,295.11035
"914",76.79317,295.12372
"915",76.46845,295.13702
"916",76.18524,295.1504
"917",75.94354,295.1637
"918",75.73846,295.17706
"919",75.62127,295.19037
"920",75.76776,295.20374
"921",76.44892,295.21704
"922",77.908905,295.2304
"923",80.21118,295.2437
"924",83.16533,295.25708
"925",86.346535,295.2704
"926",89.21278,295.28375
"927",91.28069,295.29706
"928",92.3061,295.31042
"929",92.31098,295.32373
"930",91.5053,295.3371
"931",90.15274,295.3504
"932",88.53651,295.36377
"933",86.87877,295.37708
"934",85.35531,295.39044
"935",84.051575,295.40375
"936",82.984665,295.4171
"937",82.13504,295.43042
"938",81.478294,295.4438
"939",81.007095,295.4571
"940",80.723885,295.47046
"941",80.638435,295.48376
"942",80.73121,295.49713
"943",80.938736,295.51044
"944",81.17067,295.5238
"945",81.33669,295.5371
"946",81.36355,295.55048
"947",81.2195,295.56378
"948",80.91188,295.57715
"949",80.462654,295.59045
"950",79.906006,295.60382
"951",79.293205,295.61713
"952",78.660866,295.6305
"953",78.0383,295.6438
"954",77.452354,295.65717
"955",76.92256,295.67047
"956",76.44892,295.68384
"957",76.03876,295.69714
"958",75.682304,295.7105
"959",75.36736,295.72382
"960",75.08415,295.73718
"961",74.83269,295.7505
"962",74.64713,295.76385
"963",74.669106,295.77716
"964",75.15495,295.79053
"965",76.3708,295.80383
"966",78.43626,295.8172
"967",81.234146,295.8305
"968",84.4007,295.84387
"969",87.40368,295.85718
"970",89.73525,295.87054
"971",91.08537,295.88385
"972",91.41009,295.89722
"973",90.89006,295.91052
"974",89.79874,295.9239
"975",88.429085,295.9372
"976",87.02525,295.95056
"977",85.75815,295.96387
"978",84.70344,295.97723
"979",83.8465,295.99054
"980",83.12138,296.0039
"981",82.45487,296.0172
"982",81.812775,296.03058
"983",81.20973,296.04388
"984",80.69215,296.05725
"985",80.31373,296.07056
"986",80.09155,296.08392
"987",79.991455,296.09723
"988",79.937744,296.1106
"989",79.85474,296.1239
"990",79.68139,296.13727
"991",79.38598,296.15057
"992",78.96361,296.16394
"993",78.42649,296.17725
"994",77.806366,296.1906
"995",77.13985,296.20392
"996",76.46601,296.2173
"997",75.81659,296.2306
"998",75.22087,296.24396
"999",74.683754,296.25726
"1000",74.20767,296.27063
"1001",73.780426,296.28394
"1002",73.38979,296.2973
"1003",73.023575,296.3106
"1004",72.689095,296.32397
"1005",72.40589,296.33728
"1006",72.26673,296.35065
"1007",72.481575,296.36395
"1008",73.321434,296.37732
"1009",74.984055,296.39062
"1010",77.45724,296.404
"1011",80.482185,296.4173
"1012",83.58526,296.43066
"1013",86.24399,296.44397
"1014",88.05066,296.45734
"1015",88.868546,296.47064
"1016",88.800186,296.484
"1017",88.09949,296.4973
"1018",87.05699,296.51068
"1019",85.91684,296.524
"1020",84.86458,296.53735
"1021",83.98566,296.55066
"1022",83.282524,296.56403
"1023",82.67704,296.57733
"1024",82.06424,296.5907
"1025",81.36599,296.604
"1026",80.56031,296.61737
"1027",79.70336,296.63068
"1028",78.890366,296.64404
"1029",78.21896,296.65735
"1030",77.747765,296.67072
"1031",77.467,296.68402
"1032",77.31808,296.6974
"1033",77.225296,296.7107
"1034",77.11543,296.72406
"1035",76.925,296.73737
"1036",76.627144,296.75073
"1037",76.22919,296.76404
"1038",75.755554,296.7774
"1039",75.23308,296.7907
"1040",74.69352,296.80408
"1041",74.16861,296.81738
"1042",73.68276,296.83075
"1043",73.25063,296.84406
"1044",72.88197,296.85742
"1045",72.57435,296.87073
"1046",72.325325,296.8841
"1047",72.12268,296.8974
"1048",71.94934,296.91077
"1049",71.800415,296.92407
"1050",71.67101,296.93744
"1051",71.55871,296.95074
"1052",71.46105,296.9641
"1053",71.4049,296.97742
"1054",71.485466,296.99078
"1055",71.9176,297.0041
"1056",72.972305,297.01746
"1057",74.84001,297.03076
"1058",77.49386,297.04413
"1059",80.65797,297.05743
"1060",83.86359,297.0708
"1061",86.59312,297.0841
"1062",88.46815,297.09747
"1063",89.38369,297.11078
"1064",89.47646,297.12415
"1065",89.007706,297.13745
"1066",88.26063,297.15082
"1067",87.45983,297.16412
"1068",86.751816,297.1775
"1069",86.18051,297.1908
"1070",85.72152,297.20416
"1071",85.28695,297.21747
"1072",84.76936,297.23083
"1073",84.088196,297.24414
"1074",83.22148,297.2575
"1075",82.22049,297.2708
"1076",81.1902,297.28418
"1077",80.26246,297.2975
"1078",79.534904,297.31085
"1079",79.04173,297.32416
"1080",78.751205,297.33752
"1081",78.58518,297.35083
"1082",78.44846,297.3642
"1083",78.26536,297.3775
"1084",77.98947,297.39087
"1085",77.61349,297.40417
"1086",77.14717,297.41754
"1087",76.61982,297.43085
"1088",76.05585,297.4442
"1089",75.48699,297.45752
"1090",74.932785,297.4709
"1091",74.42252,297.4842
"1092",73.968414,297.49756
"1093",73.57534,297.51086
"1094",73.248184,297.52423
"1095",72.98207,297.53754
"1096",72.77455,297.5509
"1097",72.62318,297.5642
"1098",72.52308,297.57758
"1099",72.47181,297.59088
"1100",72.45472,297.60425
"1101",72.464485,297.61755
"1102",72.48402,297.63092
"1103",72.49622,297.64423
"1104",72.49622,297.6576
"1105",72.47181,297.6709
"1106",72.42054,297.68427
"1107",72.34974,297.69757
"1108",72.30091,297.71094
"1109",72.393684,297.72424
"1110",72.87465,297.7376
"1111",74.019684,297.75092
"1112",75.99725,297.76428
"1113",78.74387,297.7776
"1114",81.94949,297.79095
"1115",85.12337,297.80426
"1116",87.75525,297.81763
"1117",89.513084,297.83093
"1118",90.33341,297.8443
"1119",90.38712,297.8576
"1120",89.94766,297.87097
"1121",89.2958,297.88428
"1122",88.639046,297.89764
"1123",88.09216,297.91095
"1124",87.682,297.92432
"1125",87.345085,297.93762
"1126",86.97887,297.951
"1127",86.47593,297.9643
"1128",85.76059,297.97766
"1129",84.825516,297.99097
"1130",83.74395,298.00433
"1131",82.64042,298.01764
"1132",81.64675,298.031
"1133",80.87038,298.0443
"1134",80.34791,298.05768
"1135",80.0354,298.07098
"1136",79.85474,298.08435
"1137",79.70336,298.09766
"1138",79.4934,298.11102
"1139",79.185776,298.12433
"1140",78.768295,298.1377
"1141",78.26536,298.151
"1142",77.69894,298.16437
"1143",77.10567,298.17767
"1144",76.50996,298.19104
"1145",75.9411,298.20435
"1146",75.41863,298.2177
"1147",74.95476,298.23102
"1148",74.55436,298.2444
"1149",74.215,298.2577
"1150",73.934235,298.27106
"1151",73.70718,298.28436
"1152",73.52407,298.29773
"1153",73.38491,298.31104
"1154",73.27749,298.3244
"1155",73.199356,298.3377
"1156",73.1432,298.35107
"1157",73.111465,298.36438
"1158",73.09926,298.37775
"1159",73.11391,298.39105
"1160",73.145645,298.40442
"1161",73.18471,298.41772
"1162",73.216446,298.4311
"1163",73.23598,298.4444
"1164",73.233536,298.45776
"1165",73.2018,298.47107
"1166",73.15053,298.48444
"1167",73.08217,298.49774
"1168",73.00404,298.5111
"1169",72.935684,298.5244
"1170",72.972305,298.53778
"1171",73.304344,298.5511
"1172",74.215,298.56445
"1173",75.93622,298.57776
"1174",78.49973,298.59113
"1175",81.67605,298.60443
"1176",85.030594,298.6178
"1177",88.02869,298.6311
"1178",90.24063,298.64447
"1179",91.49554,298.65778
"1180",91.89349,298.67114
"1181",91.68108,298.68445
"1182",91.15373,298.6978
"1183",90.548256,298.71112
"1184",90.01602,298.7245
"1185",89.61318,298.7378
"1186",89.31045,298.75116
"1187",89.01747,298.76447
"1188",88.61219,298.77783
"1189",88.00427,298.79114
"1190",87.14488,298.8045
"1191",86.07309,298.8178
"1192",84.90364,298.83118
"1193",83.78546,298.84448
"1194",82.845505,298.85785
"1195",82.16434,298.87115
"1196",81.72732,298.88452
"1197",81.463646,298.89783
"1198",81.27322,298.9112
"1199",81.06325,298.9245
"1200",80.77028,298.93787
"1201",80.37232,298.95117
"1202",79.87671,298.96454
"1203",79.30053,298.97784
"1204",78.68284,298.9912
"1205",78.05295,299.00452
"1206",77.435265,299.01788
"1207",76.85176,299.0312
"1208",76.31953,299.04456
"1209",75.84589,299.05786
"1210",75.43328,299.07123
"1211",75.08415,299.08453
"1212",74.79607,299.0979
"1213",74.55924,299.1112
"1214",74.371254,299.12457
"1215",74.22232,299.13788
"1216",74.10513,299.15125
"1217",74.00992,299.16455
"1218",73.93179,299.17792
"1219",73.863434,299.19122
"1220",73.80484,299.2046
"1221",73.75845,299.2179
"1222",73.71694,299.23126
"1223",73.69253,299.24457
"1224",73.68276,299.25793
"1225",73.67788,299.27124
"1226",73.67788,299.2846
"1227",73.673,299.2979
"1228",73.65835,299.31128
"1229",73.63149,299.3246
"1230",73.59243,299.33795
"1231",73.5436,299.35126
"1232",73.48989,299.36462
"1233",73.43862,299.37793
"1234",73.411766,299.3913
"1235",73.514305,299.4046
"1236",73.9733,299.41797
"1237",75.071945,299.43127
"1238",77.00313,299.44464
"1239",79.75708,299.45795
"1240",83.055466,299.4713
"1241",86.42466,299.48462
"1242",89.33242,299.498
"1243",91.38323,299.5113
"1244",92.45258,299.52466
"1245",92.662544,299.53796
"1246",92.27924,299.55133
"1247",91.595634,299.56464
"1248",90.86076,299.578
"1249",90.23575,299.5913
"1250",89.779205,299.60468
"1251",89.45449,299.61798
"1252",89.161514,299.63135
"1253",88.77333,299.64465
"1254",88.18494,299.65802
"1255",87.35241,299.67133
"1256",86.3148,299.6847
"1257",85.17952,299.698
"1258",84.088196,299.71136
"1259",83.160446,299.72467
"1260",82.46708,299.73804
"1261",81.99832,299.75134
"1262",81.69314,299.7647
"1263",81.45144,299.778
"1264",81.19264,299.79138
"1265",80.867935,299.8047
"1266",80.448006,299.81805
"1267",79.937744,299.83136
"1268",79.361565,299.84473
"1269",78.74876,299.85803
"1270",78.12375,299.8714
"1271",77.51095,299.8847
"1272",76.927444,299.89807
"1273",76.39277,299.91138
"1274",75.91669,299.92474
"1275",75.4992,299.93805
"1276",75.142746,299.95142
"1277",74.84978,299.96472
"1278",74.60563,299.9781
"1279",74.407875,299.9914
"1280",74.251625,300.00476
"1281",74.12955,300.01807
"1282",74.03433,300.03143
"1283",73.96353,300.04474
"1284",73.9147,300.0581
"1285",73.87564,300.0714
"1286",73.85123,300.08478
"1287",73.831696,300.09808
"1288",73.81705,300.11145
"1289",73.8024,300.12476
"1290",73.78287,300.13812
"1291",73.75845,300.15143
"1292",73.73159,300.1648
"1293",73.69985,300.1781
"1294",73.66323,300.19147
"1295",73.62173,300.20477
"1296",73.57778,300.21814
"1297",73.52407,300.23145
"1298",73.46792,300.2448
"1299",73.4313,300.25812
"1300",73.52163,300.27148
"1301",73.9733,300.2848
"1302",75.07927,300.29816
"1303",77.03731,300.31146
"1304",79.818115,300.32483
"1305",83.12627,300.33813
"1306",86.46372,300.3515
"1307",89.27383,300.3648
"1308",91.15617,300.37817
"1309",91.983826,300.39148
"1310",91.90082,300.40485
"1311",91.19768,300.41815
"1312",90.18448,300.43152
"1313",89.1371,300.44482
"1314",88.24597,300.4582
"1315",87.589226,300.4715
"1316",87.13512,300.48486
"1317",86.78111,300.49817
"1318",86.39048,300.51154
"1319",85.855804,300.52484
"1320",85.14778,300.5382
"1321",84.32258,300.5515
"1322",83.492485,300.56488
"1323",82.777145,300.5782
"1324",82.24979,300.59155
"1325",81.9202,300.60486
"1326",81.72488,300.61823
"1327",81.58572,300.63153
"1328",81.42458,300.6449
"1329",81.18288,300.6582
"1330",80.83864,300.67157
"1331",80.39185,300.68488
"1332",79.85718,300.69824
"1333",79.26147,300.71155
"1334",78.64622,300.7249
"1335",78.0383,300.73822
"1336",77.46212,300.7516
"1337",76.93721,300.7649
"1338",76.46357,300.77826
"1339",76.04852,300.79156
"1340",75.68963,300.80493
"1341",75.389336,300.81824
"1342",75.142746,300.8316
"1343",74.949875,300.8449
"1344",74.80827,300.85828
"1345",74.71549,300.87158
"1346",74.669106,300.88495
"1347",74.65934,300.89825
"1348",74.67887,300.91162
"1349",74.71305,300.92493
"1350",74.74235,300.9383
"1351",74.76189,300.9516
"1352",74.759445,300.96497
"1353",74.7277,300.97827
"1354",74.66422,300.99164
"1355",74.56901,301.00494
"1356",74.44694,301.0183
"1357",74.31754,301.03162
"1358",74.26383,301.04498
"1359",74.486,301.0583
"1360",75.27703,301.07166
"1361",76.88106,301.08496
"1362",79.361565,301.09833
"1363",82.52079,301.11163
"1364",85.92172,301.125
"1365",89.005264,301.1383
"1366",91.300224,301.15167
"1367",92.577095,301.16498
"1368",92.88472,301.17834
"1369",92.44282,301.19165
"1370",91.54925,301.20502
"1371",90.48722,301.21832
"1372",89.47646,301.2317
"1373",88.64149,301.245
"1374",88.02136,301.25836
"1375",87.56237,301.27167
"1376",87.149765,301.28503
"1377",86.64439,301.29834
"1378",85.97055,301.3117
"1379",85.120926,301.325
"1380",84.17609,301.33838
"1381",83.26299,301.35168
"1382",82.496376,301.36505
"1383",81.93973,301.37836
"1384",81.58816,301.39172
"1385",81.3782,301.40503
"1386",81.214615,301.4184
"1387",81.024185,301.4317
"1388",80.74586,301.44507
"1389",80.360115,301.45837
"1390",79.8645,301.47174
"1391",79.28588,301.48505
"1392",78.65354,301.4984
"1393",78.00168,301.51172
"1394",77.36446,301.5251
"1395",76.76387,301.5384
"1396",76.21942,301.55176
"1397",75.7409,301.56506
"1398",75.32586,301.57843
"1399",74.97673,301.59174
"1400",74.68864,301.6051
"1401",74.459145,301.6184
"1402",74.29069,301.63177
"1403",74.18326,301.64508
"1404",74.13199,301.65845
"1405",74.11978,301.67175
"1406",74.127106,301.68512
"1407",74.13199,301.69843
"1408",74.11246,301.7118
"1409",74.06119,301.7251
"1410",73.968414,301.73846
"1411",73.846344,301.75177
"1412",73.724266,301.76514
"1413",73.70962,301.77844
"1414",74.03189,301.7918
"1415",74.9987,301.8051
"1416",76.83223,301.81848
"1417",79.554436,301.8318
"1418",82.916306,301.84515
"1419",86.43687,301.85846
"1420",89.54238,301.87183
"1421",91.790955,301.88513
"1422",92.99214,301.8985
"1423",93.23628,301.9118
"1424",92.76997,301.92517
"1425",91.90082,301.93848
"1426",90.91203,301.95184
"1427",90.003815,301.96515
"1428",89.27871,301.97852
"1429",88.741585,301.99182
"1430",88.31678,302.0052
"1431",87.87732,302.0185
"1432",87.291374,302.03186
"1433",86.48081,302.04517
"1434",85.44564,302.05853
"1435",84.27619,302.07184
"1436",83.11894,302.0852
"1437",82.11795,302.0985
"1438",81.36843,302.11188
"1439",80.88747,302.12518
"1440",80.61646,302.13855
"1441",80.45777,302.15186
"1442",80.30152,302.16522
"1443",80.06958,302.17853
"1444",79.71801,302.1919
"1445",79.237045,302.2052
"1446",78.64622,302.21857
"1447",77.98947,302.23187
"1448",77.30099,302.24524
"1449",76.627144,302.25854
"1450",75.99725,302.2719
"1451",75.43084,302.28522
"1452",74.932785,302.29858
"1453",74.50553,302.3119
"1454",74.15152,302.32526
"1455",73.86832,302.33856
"1456",73.653465,302.35193
"1457",73.514305,302.36523
"1458",73.43618,302.3786
"1459",73.39956,302.3919
"1460",73.38979,302.40527
"1461",73.38979,302.41858
"1462",73.375145,302.43195
"1463",73.338524,302.44525
"1464",73.272606,302.45862
"1465",73.179825,302.47192
"1466",73.0724,302.4853
"1467",72.989395,302.4986
"1468",73.06508,302.51196
"1469",73.55093,302.52527
"1470",74.74723,302.53864
"1471",76.86153,302.55194
"1472",79.852295,302.5653
"1473",83.41924,302.5786
"1474",87.047226,302.59198
"1475",90.15518,302.6053
"1476",92.31098,302.61865
"1477",93.37057,302.63196
"1478",93.45846,302.64532
"1479",92.84566,302.65863
"1480",91.85687,302.672
"1481",90.777756,302.6853
"1482",89.80606,302.69867
"1483",89.03212,302.71198
"1484",88.44373,302.72534
"1485",87.938354,302.73865
"1486",87.38903,302.752
"1487",86.659035,302.76532
"1488",85.697105,302.7787
"1489",84.53498,302.792
"1490",83.29229,302.80536
"1491",82.13016,302.81866
"1492",81.1902,302.83203
"1493",80.5359,302.84534
"1494",80.15747,302.8587
"1495",79.96216,302.872
"1496",79.83765,302.88538
"1497",79.67895,302.89868
"1498",79.415276,302.91205
"1499",79.0222,302.92535
"1500",78.49485,302.93872
"1501",77.86252,302.95203
"1502",77.1667,302.9654
"1503",76.44892,302.9787
"1504",75.75311,302.99207
"1505",75.10857,303.00537
"1506",74.53483,303.01874
"1507",74.03189,303.03204
"1508",73.60464,303.0454
"1509",73.248184,303.05872
"1510",72.9601,303.07208
"1511",72.74525,303.0854
"1512",72.601204,303.09875
"1513",72.52552,303.11206
"1514",72.50355,303.12543
"1515",72.52552,303.13873
"1516",72.57435,303.1521
"1517",72.63538,303.1654
"1518",72.691536,303.17877
"1519",72.7306,303.19208
"1520",72.742805,303.20544
"1521",72.723274,303.21875
"1522",72.67689,303.23212
"1523",72.61829,303.24542
"1524",72.601204,303.2588
"1525",72.79164,303.2721
"1526",73.47524,303.28546
"1527",74.949875,303.29877
"1528",77.35714,303.31213
"1529",80.584724,303.32544
"1530",84.25666,303.3388
"1531",87.80408,303.3521
"1532",90.67033,303.36548
"1533",92.506294,303.37878
"1534",93.25338,303.39215
"1535",93.07515,303.40546
"1536",92.25971,303.41882
"1537",91.11223,303.43213
"1538",89.89151,303.4455
"1539",88.780655,303.4588
"1540",87.852905,303.47217
"1541",87.08873,303.48547
"1542",86.3856,303.49884
"1543",85.61898,303.51215
"1544",84.70832,303.5255
"1545",83.64385,303.53882
"1546",82.52323,303.5522
"1547",81.47097,303.5655
"1548",80.62623,303.57886
"1549",80.05249,303.59216
"1550",79.744865,303.60553
"1551",79.60815,303.61884
"1552",79.53246,303.6322
"1553",79.41039,303.6455
"1554",79.17357,303.65887
"1555",78.785385,303.67218
"1556",78.25803,303.68555
"1557",77.61837,303.69885
"1558",76.90547,303.71222
"1559",76.15106,303.72552
"1560",75.406425,303.7389
"1561",74.71793,303.7522
"1562",74.11978,303.76556
"1563",73.62905,303.77887
"1564",73.24574,303.79224
"1565",72.95766,303.80554
"1566",72.75014,303.8189
"1567",72.60853,303.8322
"1568",72.52064,303.84558
"1569",72.47669,303.8589
"1570",72.46204,303.87225
"1571",72.4596,303.88556
"1572",72.464485,303.89893
"1573",72.481575,303.91223
"1574",72.532845,303.9256
"1575",72.637825,303.9389
"1576",72.796524,303.95227
"1577",72.99916,303.96558
"1578",73.214005,303.97894
"1579",73.40444,303.99225
"1580",73.548485,304.0056
"1581",73.636375,304.01892
"1582",73.66567,304.0323
"1583",73.65835,304.0456
"1584",73.63149,304.05896
"1585",73.602196,304.07227
"1586",73.63149,304.08563
"1587",73.89761,304.09894
"1588",74.6984,304.1123
"1589",76.32441,304.1256
"1590",78.905014,304.13898
"1591",82.29618,304.15228
"1592",86.07309,304.16565
"1593",89.62783,304.17896
"1594",92.39155,304.19232
"1595",94.01755,304.20563
"1596",94.469215,304.219
"1597",93.93942,304.2323
"1598",92.74067,304.24567
"1599",91.20012,304.25897
"1600",89.58633,304.27234
"1601",88.08728,304.28564
"1602",86.79332,304.299
"1603",85.68978,304.31232
"1604",84.70832,304.32568
"1605",83.790344,304.339
"1606",82.913864,304.35236
"1607",82.12039,304.36566
"1608",81.48562,304.37903
"1609",81.08278,304.39233
"1610",80.92409,304.4057
"1611",80.955826,304.419
"1612",81.075455,304.43237
"1613",81.16823,304.44568
"1614",81.14137,304.45905
"1615",80.94118,304.47235
"1616",80.550545,304.48572
"1617",79.991455,304.49902
"1618",79.30541,304.5124
"1619",78.54856,304.5257
"1620",77.77219,304.53906
"1621",77.01778,304.55237
"1622",76.32197,304.56573
"1623",75.69451,304.57904
"1624",75.14763,304.5924
"1625",74.686195,304.6057
"1626",74.31022,304.61908
"1627",74.01724,304.6324
"1628",73.80484,304.64575
"1629",73.66323,304.65906
"1630",73.57534,304.67242
"1631",73.52651,304.68573
"1632",73.50454,304.6991
"1633",73.497215,304.7124
"1634",73.49966,304.72577
"1635",73.50942,304.73907
"1636",73.52895,304.75244
"1637",73.55581,304.76575
"1638",73.58999,304.7791
"1639",73.63149,304.79242
"1640",73.67544,304.8058
"1641",73.71938,304.8191
"1642",73.75601,304.83246
"1643",73.77554,304.84576
"1644",73.7731,304.85913
"1645",73.75601,304.87244
"1646",73.724266,304.8858
"1647",73.673,304.8991
"1648",73.60708,304.91248
"1649",73.548485,304.92578
"1650",73.59487,304.93915
"1651",73.98062,304.95245
"1652",75.037766,304.96582
"1653",77.00801,304.97913
"1654",79.906006,304.9925
"1655",83.458305,305.0058
"1656",87.13756,305.01917
"1657",90.33585,305.03247
"1658",92.56245,305.04584
"1659",93.60738,305.05914
"1660",93.556114,305.0725
"1661",92.65522,305.08582
"1662",91.212326,305.09918
"1663",89.513084,305.1125
"1664",87.78943,305.12585
"1665",86.187836,305.13916
"1666",84.78157,305.15253
"1667",83.577934,305.16583
"1668",82.55253,305.1792
"1669",81.69802,305.1925
"1670",81.03639,305.20587
"1671",80.59449,305.21918
"1672",80.411385,305.23254
"1673",80.4773,305.24585
"1674",80.73365,305.25922
"1675",81.07057,305.27252
"1676",81.36599,305.2859
"1677",81.51736,305.2992
"1678",81.46609,305.31256
"1679",81.19997,305.32587
"1680",80.73365,305.33923
"1681",80.11597,305.35254
"1682",79.398186,305.3659
"1683",78.63889,305.3792
"1684",77.88205,305.39258
"1685",77.171585,305.40588
"1686",76.53193,305.41925
"1687",75.97772,305.43256
"1688",75.51385,305.44592
"1689",75.13298,305.45923
"1690",74.83269,305.4726
"1691",74.60563,305.4859
"1692",74.44938,305.49927
"1693",74.34684,305.51257
"1694",74.288246,305.52594
"1695",74.26139,305.53925
"1696",74.25407,305.5526
"1697",74.26383,305.56592
"1698",74.285805,305.57928
"1699",74.319984,305.5926
"1700",74.35905,305.60596
"1701",74.41032,305.61926
"1702",74.46891,305.63263
"1703",74.52018,305.64594
"1704",74.56168,305.6593
"1705",74.59342,305.6726
"1706",74.60319,305.68597
"1707",74.59098,305.69928
"1708",74.5568,305.71265
"1709",74.50065,305.72595
"1710",74.42008,305.73932
"1711",74.339516,305.75262
"1712",74.339516,305.766
"1713",74.64469,305.7793
"1714",75.577324,305.79266
"1715",77.37911,305.80597
"1716",80.076904,305.81934
"1717",83.421684,305.83264
"1718",86.922714,305.846
"1719",89.986725,305.8593
"1720",92.12787,305.87268
"1721",93.138626,305.886
"1722",93.09468,305.89935
"1723",92.225525,305.91266
"1724",90.8217,305.92603
"1725",89.15663,305.93933
"1726",87.45251,305.9527
"1727",85.86557,305.966
"1728",84.48615,305.97937
"1729",83.33135,305.99268
"1730",82.37919,306.00604
"1731",81.61257,306.01935
"1732",81.03151,306.0327
"1733",80.66773,306.04602
"1734",80.5359,306.0594
"1735",80.64088,306.0727
"1736",80.93141,306.08606
"1737",81.307396,306.09937
"1738",81.651634,306.11273
"1739",81.866486,306.12604
"1740",81.90311,306.1394
"1741",81.7322,306.1527
"1742",81.375755,306.16608
"1743",80.87282,306.17938
"1744",80.26978,306.19275
"1745",79.605705,306.20605
"1746",78.922104,306.21942
"1747",78.25315,306.23273
"1748",77.62325,306.2461
"1749",77.0544,306.2594
"1750",76.56367,306.27277
"1751",76.16083,306.28607
"1752",75.843445,306.29944
"1753",75.596855,306.31274
"1754",75.41863,306.3261
"1755",75.301445,306.33942
"1756",75.23552,306.35278
"1757",75.208664,306.3661
"1758",75.22087,306.37946
"1759",75.267265,306.39276
"1760",75.335625,306.40613
"1761",75.41619,306.41943
"1762",75.50164,306.4328
"1763",75.58221,306.4461
"1764",75.64568,306.45947
"1765",75.69695,306.47278
"1766",75.72869,306.48615
"1767",75.7409,306.49945
"1768",75.72869,306.51282
"1769",75.69451,306.52612
"1770",75.631035,306.5395
"1771",75.5407,306.5528
"1772",75.43572,306.56616
"1773",75.37469,306.57947
"1774",75.53826,306.59283
"1775",76.226746,306.60614
"1776",77.73556,306.6195
"1777",80.16724,306.6328
"1778",83.34112,306.64618
"1779",86.8275,306.6595
"1780",90.040436,306.67285
"1781",92.437935,306.68616
"1782",93.731895,306.69952
"1783",93.927216,306.71283
"1784",93.2314,306.7262
"1785",91.92035,306.7395
"1786",90.26505,306.75287
"1787",88.50721,306.76617
"1788",86.8275,306.77954
"1789",85.33578,306.79285
"1790",84.08087,306.8062
"1791",83.055466,306.81952
"1792",82.24002,306.8329
"1793",81.617455,306.8462
"1794",81.19264,306.85956
"1795",80.987564,306.87286
"1796",81.01198,306.88623
"1797",81.23903,306.89954
"1798",81.600365,306.9129
"1799",81.988556,306.9262
"1800",82.303505,306.93958
"1801",82.459755,306.95288
"1802",82.41581,306.96625
"1803",82.161896,306.97955
"1804",81.722435,306.99292
"1805",81.146255,307.00623
"1806",80.48463,307.0196
"1807",79.78882,307.0329
"1808",79.097885,307.04626
"1809",78.44358,307.05957
"1810",77.84787,307.07294
"1811",77.31808,307.08624
"1812",76.859085,307.0996
"1813",76.47578,307.1129
"1814",76.16815,307.12628
"1815",75.931335,307.1396
"1816",75.76288,307.15295
"1817",75.648125,307.16626
"1818",75.58221,307.17963
"1819",75.55779,307.19293
"1820",75.562675,307.2063
"1821",75.59197,307.2196
"1822",75.6408,307.23297
"1823",75.70428,307.24628
"1824",75.775085,307.25964
"1825",75.85077,307.27295
"1826",75.92645,307.28632
"1827",75.99481,307.29962
"1828",76.04364,307.313
"1829",76.06561,307.3263
"1830",76.04852,307.33966
"1831",75.98993,307.35297
"1832",75.897156,307.36633
"1833",75.843445,307.37964
"1834",76.02411,307.393
"1835",76.76387,307.4063
"1836",78.348366,307.41968
"1837",80.85329,307.43298
"1838",84.07599,307.44635
"1839",87.55749,307.45966
"1840",90.71183,307.47302
"1841",93.014114,307.48633
"1842",94.205536,307.4997
"1843",94.31541,307.513
"1844",93.55123,307.52637
"1845",92.18402,307.53967
"1846",90.48478,307.55304
"1847",88.687874,307.56635
"1848",86.97887,307.5797
"1849",85.472496,307.59302
"1850",84.21271,307.60638
"1851",83.192184,307.6197
"1852",82.38163,307.63306
"1853",81.76395,307.64636
"1854",81.34646,307.65973
"1855",81.143814,307.67303
"1856",81.17067,307.6864
"1857",81.40505,307.6997
"1858",81.77127,307.71307
"1859",82.161896,307.72638
"1860",82.47196,307.73975
"1861",82.61112,307.75305
"1862",82.54276,307.76642
"1863",82.25956,307.77972
"1864",81.7908,307.7931
"1865",81.180435,307.8064
"1866",80.48463,307.81976
"1867",79.75464,307.83307
"1868",79.029526,307.84644
"1869",78.345924,307.85974
"1870",77.730675,307.8731
"1871",77.19112,307.8864
"1872",76.72968,307.89978
"1873",76.34882,307.9131
"1874",76.04608,307.92645
"1875",75.81415,307.93976
"1876",75.64324,307.95312
"1877",75.53094,307.96643
"1878",75.46014,307.9798
"1879",75.423515,307.9931
"1880",75.41375,308.00647
"1881",75.423515,308.01978
"1882",75.44305,308.03314
"1883",75.47234,308.04645
"1884",75.50164,308.0598
"1885",75.528496,308.07312
"1886",75.545586,308.0865
"1887",75.55047,308.0998
"1888",75.53338,308.11316
"1889",75.48699,308.12646
"1890",75.41375,308.13983
"1891",75.37713,308.15314
"1892",75.560234,308.1665
"1893",76.282906,308.1798
"1894",77.840546,308.19318
"1895",80.33814,308.20648
"1896",83.59014,308.21985
"1897",87.15465,308.23315
"1898",90.43107,308.24652
"1899",92.88228,308.25983
"1900",94.2153,308.2732
"1901",94.435036,308.2865
"1902",93.74166,308.29987
"1903",92.41108,308.31317
"1904",90.721596,308.32654
"1905",88.91493,308.33984
"1906",87.17906,308.3532
"1907",85.63607,308.36652
"1908",84.34211,308.37988
"1909",83.28985,308.3932
"1910",82.45487,308.40656
"1911",81.81033,308.41986
"1912",81.3489,308.43323
"1913",81.0901,308.44653
"1914",81.05592,308.4599
"1915",81.22682,308.4732
"1916",81.53689,308.48657
"1917",81.8909,308.49988
"1918",82.178986,308.51324
"1919",82.31571,308.52655
"1920",82.25712,308.53992
"1921",81.988556,308.55322
"1922",81.53445,308.5666
"1923",80.936295,308.5799
"1924",80.24048,308.59326
"1925",79.49584,308.60657
"1926",78.74143,308.61993
"1927",78.01633,308.63324
"1928",77.34493,308.6466
"1929",76.74433,308.6599
"1930",76.22186,308.67328
"1931",75.79462,308.68658
"1932",75.45525,308.69995
"1933",75.1989,308.71326
"1934",75.01579,308.72662
"1935",74.89372,308.73993
"1936",74.813156,308.7533
"1937",74.77409,308.7666
"1938",74.76921,308.77997
"1939",74.79607,308.79327
"1940",74.84245,308.80664
"1941",74.898605,308.81995
"1942",74.94499,308.8333
"1943",74.97429,308.84662
"1944",74.966965,308.86
"1945",74.92546,308.8733
"1946",74.847336,308.88666
"1947",74.75212,308.89996
"1948",74.74479,308.91333
"1949",75.089035,308.92664
"1950",76.13153,308.94
"1951",78.118866,308.9533
"1952",81.05348,308.96667
"1953",84.63752,308.97998
"1954",88.33387,308.99335
"1955",91.51751,309.00665
"1956",93.70504,309.02002
"1957",94.70115,309.03333
"1958",94.59617,309.0467
"1959",93.626915,309.06
"1960",92.08148,309.07336
"1961",90.24307,309.08667
"1962",88.35096,309.10004
"1963",86.58091,309.11334
"1964",85.0428,309.1267
"1965",83.76593,309.14
"1966",82.735634,309.15338
"1967",81.9202,309.1667
"1968",81.307396,309.18005
"1969",80.89235,309.19336
"1970",80.69215,309.20673
"1971",80.71168,309.22003
"1972",80.907,309.2334
"1973",81.20485,309.2467
"1974",81.497826,309.26007
"1975",81.6907,309.27338
"1976",81.71755,309.28674
"1977",81.54665,309.30005
"1978",81.18532,309.31342
"1979",80.65797,309.32672
"1980",80.008545,309.3401
"1981",79.28344,309.3534
"1982",78.52415,309.36676
"1983",77.76486,309.38007
"1984",77.04219,309.39343
"1985",76.38056,309.40674
"1986",75.792175,309.4201
"1987",75.28191,309.4334
"1988",74.85222,309.44678
"1989",74.50553,309.46008
"1990",74.23453,309.47345
"1991",74.04166,309.48676
"1992",73.919586,309.50012
"1993",73.85611,309.51343
"1994",73.83414,309.5268
"1995",73.83414,309.5401
"1996",73.83658,309.55347
"1997",73.82681,309.56677
"1998",73.797516,309.58014
"1999",73.741356,309.59344
"2000",73.69497,309.6068
"2001",73.812164,309.62012
"2002",74.390785,309.63348
"2003",75.76288,309.6468
"2004",78.116425,309.66016
"2005",81.37087,309.67346
"2006",85.155106,309.68683
"2007",88.87099,309.70013
"2008",91.9057,309.7135
"2009",93.84177,309.7268
"2010",94.56931,309.74017
"2011",94.21774,309.75348
"2012",93.05806,309.76685
"2013",91.38567,309.78015
"2014",89.478905,309.79352
"2015",87.55749,309.80682
"2016",85.78256,309.8202
"2017",84.244446,309.8335
"2018",82.96513,309.84686
"2019",81.92264,309.86017
"2020",81.094986,309.87354
"2021",80.479744,309.88684
"2022",80.08911,309.9002
"2023",79.94263,309.9135
"2024",80.028076,309.92688
"2025",80.291756,309.9402
"2026",80.635994,309.95355
"2027",80.94362,309.96686
"2028",81.12184,309.98022
"2029",81.112076,309.99353
"2030",80.89479,310.0069
"2031",80.48463,310.0202
"2032",79.91577,310.03357
"2033",79.234604,310.04688
"2034",78.48997,310.06024
"2035",77.71847,310.07355
"2036",76.961624,310.0869
"2037",76.25117,310.10022
"2038",75.60174,310.1136
"2039",75.03044,310.1269
"2040",74.54459,310.14026
"2041",74.15152,310.15356
"2042",73.8439,310.16693
"2043",73.61196,310.18024
"2044",73.44106,310.1936
"2045",73.31655,310.2069
"2046",73.22133,310.22028
"2047",73.13832,310.23358
"2048",73.06264,310.24695
"2049",73.0016,310.26025
"2050",73.05287,310.27362
"2051",73.445946,310.28693
"2052",74.52018,310.3003
"2053",76.55634,310.3136
"2054",79.603264,310.32697
"2055",83.407036,310.34027
"2056",87.4403,310.35364
"2057",91.056076,310.36694
"2058",93.695274,310.3803
"2059",95.08934,310.39362
"2060",95.274895,310.40698
"2061",94.48142,310.4203
"2062",93.00679,310.43365
"2063",91.16838,310.44696
"2064",89.22011,310.46033
"2065",87.36462,310.47363
"2066",85.72152,310.487
"2067",84.334785,310.5003
"2068",83.192184,310.51367
"2069",82.25468,310.52698
"2070",81.497826,310.54034
"2071",80.92653,310.55365
"2072",80.56031,310.56702
"2073",80.411385,310.58032
"2074",80.45533,310.5937
"2075",80.62379,310.607
"2076",80.816666,310.62036
"2077",80.92897,310.63367
"2078",80.89967,310.64703
"2079",80.689705,310.66034
"2080",80.30152,310.6737
"2081",79.75708,310.687
"2082",79.10277,310.70038
"2083",78.380104,310.71368
"2084",77.625694,310.72705
"2085",76.87129,310.74036
"2086",76.155945,310.75372
"2087",75.49676,310.76703
"2088",74.90837,310.7804
"2089",74.40055,310.7937
"2090",73.97574,310.80707
"2091",73.616844,310.82037
"2092",73.31411,310.83374
"2093",73.057755,310.84705
"2094",72.83803,310.8604
"2095",72.64759,310.87372
"2096",72.49378,310.8871
"2097",72.44007,310.9004
"2098",72.68665,310.91376
"2099",73.56313,310.92706
"2100",75.39422,310.94043
"2101",78.30442,310.95374
"2102",82.11795,310.9671
"2103",86.3563,310.9804
"2104",90.355385,310.99377
"2105",93.48287,311.00708
"2106",95.36767,311.02045
"2107",95.96094,311.03375
"2108",95.465324,311.04712
"2109",94.19089,311.06042
"2110",92.48432,311.0738
"2111",90.64347,311.0871
"2112",88.8954,311.10046
"2113",87.379265,311.11377
"2114",86.136566,311.12714
"2115",85.118484,311.14044
"2116",84.24689,311.1538
"2117",83.44854,311.1671
"2118",82.69901,311.18048
"2119",82.022736,311.1938
"2120",81.463646,311.20715
"2121",81.06569,311.22046
"2122",80.82155,311.23383
"2123",80.67994,311.24713
"2124",80.55787,311.2605
"2125",80.38697,311.2738
"2126",80.113525,311.28717
"2127",79.72045,311.30048
"2128",79.202866,311.31384
"2129",78.58274,311.32715
"2130",77.891815,311.3405
"2131",77.154495,311.35382
"2132",76.4123,311.3672
"2133",75.68963,311.3805
"2134",75.01091,311.39386
"2135",74.38834,311.40717
"2136",73.831696,311.42053
"2137",73.33608,311.43384
"2138",72.89906,311.4472
"2139",72.51087,311.4605
"2140",72.166626,311.47388
"2141",71.85657,311.48718
"2142",71.58556,311.50055
"2143",71.39025,311.51385
"2144",71.40734,311.52722
"2145",71.9176,311.54053
"2146",73.270164,311.5539
"2147",75.69451,311.5672
"2148",79.16136,311.58057
"2149",83.32647,311.59387
"2150",87.586784,311.60724
"2151",91.268486,311.62054
"2152",93.84665,311.6339
"2153",95.113754,311.64722
"2154",95.17479,311.66058
"2155",94.31541,311.6739
"2156",92.87984,311.68726
"2157",91.21477,311.70056
"2158",89.57656,311.71393
"2159",88.13367,311.72723
"2160",86.93736,311.7406
"2161",85.95102,311.7539
"2162",85.06477,311.76727
"2163",84.18829,311.78058
"2164",83.25323,311.79395
"2165",82.27909,311.80725
"2166",81.33425,311.82062
"2167",80.50416,311.83392
"2168",79.84985,311.8473
"2169",79.38354,311.8606
"2170",79.05638,311.87396
"2171",78.79759,311.88727
"2172",78.538795,311.90063
"2173",78.21896,311.91394
"2174",77.80148,311.9273
"2175",77.28634,311.9406
"2176",76.67597,311.95398
"2177",75.99725,311.9673
"2178",75.28191,311.98065
"2179",74.56657,311.99396
"2180",73.882965,312.00732
"2181",73.24574,312.02063
"2182",72.674446,312.034
"2183",72.1593,312.0473
"2184",71.70275,312.06067
"2185",71.292595,312.07397
"2186",70.93126,312.08734
"2187",70.61631,312.10065
"2188",70.34287,312.114
"2189",70.115814,312.12732
"2190",69.962006,312.1407
"2191",69.98398,312.154
"2192",70.435646,312.16736
"2193",71.656364,312.18066
"2194",73.9025,312.19403
"2195",77.19356,312.20734
"2196",81.24635,312.2207
"2197",85.50179,312.234
"2198",89.28115,312.24738
"2199",92.02533,312.26068
"2200",93.487755,312.27405
"2201",93.71969,312.28735
"2202",92.999466,312.30072
"2203",91.68597,312.31403
"2204",90.125885,312.3274
"2205",88.59266,312.3407
"2206",87.257195,312.35406
"2207",86.168304,312.36737
"2208",85.279625,312.38074
"2209",84.47883,312.39404
"2210",83.65362,312.4074
"2211",82.73319,312.42072
"2212",81.72732,312.43408
"2213",80.706795,312.4474
"2214",79.77661,312.46075
"2215",79.027084,312.47406
"2216",78.4802,312.48743
"2217",78.10422,312.50073
"2218",77.83322,312.5141
"2219",77.593956,312.5274
"2220",77.315636,312.54077
"2221",76.95186,312.55408
"2222",76.49287,312.56744
"2223",75.9411,312.58075
"2224",75.30877,312.59412
"2225",74.617836,312.60742
"2226",73.900055,312.6208
"2227",73.18959,312.6341
"2228",72.518196,312.64746
"2229",71.920044,312.66077
"2230",71.412224,312.67413
"2231",71.00206,312.68744
"2232",70.68711,312.7008
"2233",70.45518,312.7141
"2234",70.296486,312.72748
"2235",70.1915,312.74078
"2236",70.135345,312.75415
"2237",70.118256,312.76746
"2238",70.118256,312.78082
"2239",70.13046,312.79413
"2240",70.17441,312.8075
"2241",70.362404,312.8208
"2242",70.94591,312.83417
"2243",72.274055,312.84747
"2244",74.60807,312.86084
"2245",77.95529,312.87415
"2246",82.01541,312.8875
"2247",86.219574,312.90082
"2248",89.898834,312.91418
"2249",92.508736,312.9275
"2250",93.83444,312.94086
"2251",93.96872,312.95416
"2252",93.20943,312.96753
"2253",91.92767,312.98083
"2254",90.46769,312.9942
"2255",89.08827,313.0075
"2256",87.92615,313.02087
"2257",87.00084,313.03418
"2258",86.24155,313.04755
"2259",85.514,313.06085
"2260",84.698555,313.07422
"2261",83.75128,313.08752
"2262",82.69657,313.1009
"2263",81.62966,313.1142
"2264",80.66529,313.12756
"2265",79.8938,313.14087
"2266",79.33959,313.15424
"2267",78.95384,313.16754
"2268",78.66575,313.1809
"2269",78.397194,313.1942
"2270",78.07004,313.20758
"2271",77.65255,313.2209
"2272",77.134964,313.23425
"2273",76.52705,313.24756
"2274",75.85565,313.26093
"2275",75.142746,313.27423
"2276",74.42008,313.2876
"2277",73.71938,313.3009
"2278",73.05531,313.31427
"2279",72.44984,313.32758
"2280",71.922485,313.34094
"2281",71.483025,313.35425
"2282",71.14366,313.3676
"2283",70.90196,313.38092
"2284",70.75548,313.3943
"2285",70.68711,313.4076
"2286",70.674904,313.42096
"2287",70.69199,313.43427
"2288",70.72129,313.44763
"2289",70.75792,313.46094
"2290",70.78722,313.4743
"2291",70.80919,313.4876
"2292",70.82628,313.50098
"2293",70.89708,313.51428
"2294",71.182724,313.52765
"2295",72.00549,313.54095
"2296",73.69985,313.55432
"2297",76.44892,313.56763
"2298",80.13306,313.581
"2299",84.32746,313.5943
"2300",88.394905,313.60767
"2301",91.69573,313.62097
"2302",93.81003,313.63434
"2303",94.66453,313.64764
"2304",94.44724,313.661
"2305",93.49996,313.67432
"2306",92.18646,313.68768
"2307",90.811935,313.701
"2308",89.583885,313.71436
"2309",88.587776,313.72766
"2310",87.79431,313.74103
"2311",87.09117,313.75433
"2312",86.3563,313.7677
"2313",85.49935,313.781
"2314",84.51789,313.79437
"2315",83.48028,313.80768
"2316",82.496376,313.82104
"2317",81.67605,313.83435
"2318",81.06569,313.84772
"2319",80.65308,313.86102
"2320",80.37965,313.8744
"2321",80.164795,313.8877
"2322",79.93286,313.90106
"2323",79.622795,313.91437
"2324",79.21019,313.92773
"2325",78.692604,313.94104
"2326",78.09201,313.9544
"2327",77.43282,313.9677
"2328",76.754105,313.98108
"2329",76.08026,313.9944
"2330",75.43328,314.00775
"2331",74.8156,314.02106
"2332",74.23941,314.03442
"2333",73.7145,314.04773
"2334",73.253075,314.0611
"2335",72.867325,314.0744
"2336",72.57191,314.08777
"2337",72.37171,314.10107
"2338",72.25941,314.11444
"2339",72.215454,314.12775
"2340",72.215454,314.1411
"2341",72.232544,314.15442
"2342",72.25208,314.1678
"2343",72.25208,314.1811
"2344",72.22278,314.19446
"2345",72.164185,314.20776
"2346",72.08362,314.22113
"2347",72.042114,314.23444
"2348",72.21057,314.2478
"2349",72.89174,314.2611
"2350",74.424965,314.27448
"2351",77.00069,314.28778
"2352",80.53101,314.30115
"2353",84.60822,314.31445
"2354",88.61463,314.32782
"2355",91.89838,314.34113
"2356",94.01999,314.3545
"2357",94.872055,314.3678
"2358",94.63035,314.38116
"2359",93.63424,314.39447
"2360",92.25239,314.40784
"2361",90.79973,314.42114
"2362",89.50088,314.4345
"2363",88.45106,314.4478
"2364",87.63073,314.46118
"2365",86.93492,314.4745
"2366",86.23422,314.48785
"2367",85.4432,314.50116
"2368",84.53254,314.51453
"2369",83.56817,314.52783
"2370",82.64774,314.5412
"2371",81.87137,314.5545
"2372",81.28298,314.56787
"2373",80.87038,314.58118
"2374",80.56275,314.59454
"2375",80.289314,314.60785
"2376",79.97925,314.62122
"2377",79.59106,314.63452
"2378",79.10765,314.6479
"2379",78.536354,314.6612
"2380",77.891815,314.67456
"2381",77.196,314.68787
"2382",76.470894,314.70123
"2383",75.74822,314.71454
"2384",75.04265,314.7279
"2385",74.38102,314.7412
"2386",73.78287,314.75458
"2387",73.255516,314.76788
"2388",72.80629,314.78125
"2389",72.444954,314.79456
"2390",72.16907,314.80792
"2391",71.973755,314.82123
"2392",71.85657,314.8346
"2393",71.80286,314.8479
"2394",71.79553,314.86127
"2395",71.837036,314.88794
"2396",71.854126,314.90125
"2397",71.854126,314.9146
"2398",71.82727,314.92792
"2399",71.776,314.94128
"2400",71.71252,314.9546
"2401",71.707634,314.96796
"2402",71.97131,314.98126
"2403",72.84047,314.99463
"2404",74.63981,315.00793
"2405",77.503624,315.0213
"2406",81.25613,315.0346
"2407",85.42611,315.04797
"2408",89.35195,315.06128
"2409",92.4062,315.07465
"2410",94.21286,315.08795
"2411",94.74265,315.10132
"2412",94.220184,315.11462
"2413",92.999466,315.128
"2414",91.456474,315.1413
"2415",89.90616,315.15466
"2416",88.5658,315.16797
"2417",87.51598,315.18134
"2418",86.710304,315.19464
"2419",86.03403,315.208
"2420",85.35531,315.2213
"2421",84.59113,315.23468
"2422",83.73174,315.248
"2423",82.85283,315.26135
"2424",82.04959,315.27466
"2425",81.392845,315.28802
"2426",80.902115,315.30133
"2427",80.54322,315.3147
"2428",80.2478,315.328
"2429",79.94995,315.34137
"2430",79.60082,315.35468
"2431",79.17601,315.36804
"2432",78.67063,315.38135
"2433",78.09445,315.3947
"2434",77.46212,315.40802
"2435",76.788284,315.4214
"2436",76.09979,315.4347
"2437",75.41375,315.44806
"2438",74.75212,315.46136
"2439",74.13443,315.47473
"2440",73.57534,315.48804
"2441",73.08217,315.5014
"2442",72.6598,315.5147
"2443",72.31068,315.52808
"2444",72.03235,315.54138
"2445",71.82727,315.55475
"2446",71.692986,315.56805
"2447",71.62707,315.58142
"2448",71.622185,315.59473
"2449",71.66613,315.6081
"2450",71.73937,315.6214
"2451",71.82727,315.63477
"2452",71.90784,315.64807
"2453",71.96399,315.66144
"2454",71.990845,315.67474
"2455",71.97864,315.6881
"2456",71.93225,315.70142
"2457",71.89075,315.71478
"2458",71.98108,315.7281
"2459",72.498665,315.74146
"2460",73.81705,315.75476
"2461",76.19745,315.76813
"2462",79.635,315.78143
"2463",83.78546,315.7948
"2464",88.04822,315.8081
"2465",91.71282,315.82147
"2466",94.237274,315.83478
"2467",95.40917,315.84814
"2468",95.33837,315.86145
"2469",94.32517,315.87482
"2470",92.74799,315.88812
"2471",90.95842,315.9015
"2472",89.24208,315.9148
"2473",87.782104,315.92816
"2474",86.6273,315.94147
"2475",85.72396,315.95483
"2476",84.962234,315.96814
"2477",84.244446,315.9815
"2478",83.52422,315.9948
"2479",82.82597,316.00818
"2480",82.213165,316.02148
"2481",81.75418,316.03485
"2482",81.46609,316.04816
"2483",81.30251,316.06152
"2484",81.18532,316.07483
"2485",81.03883,316.0882
"2486",80.8069,316.1015
"2487",80.45289,316.11487
"2488",79.974365,316.12817
"2489",79.38354,316.14154
"2490",78.712135,316.15485
"2491",77.98703,316.1682
"2492",77.239944,316.18152
"2493",76.49775,316.1949
"2494",75.792175,316.2082
"2495",75.13786,316.22156
"2496",74.54948,316.23486
"2497",74.03677,316.24823
"2498",73.60708,316.26154
"2499",73.2604,316.2749
"2500",72.99428,316.2882
"2501",72.80873,316.30157
"2502",72.69642,316.31488
"2503",72.64515,316.32825
"2504",72.63538,316.34155
"2505",72.64759,316.35492
"2506",72.66712,316.36823
"2507",72.674446,316.3816
"2508",72.654915,316.3949
"2509",72.601204,316.40826
"2510",72.532845,316.42157
"2511",72.52064,316.43494
"2512",72.76967,316.44824
"2513",73.619286,316.4616
"2514",75.41131,316.4749
"2515",78.2678,316.48828
"2516",82.01541,316.5016
"2517",86.18051,316.51495
"2518",90.09659,316.52826
"2519",93.12154,316.54163
"2520",94.88426,316.55493
"2521",95.34814,316.5683
"2522",94.73289,316.5816
"2523",93.37301,316.59497
"2524",91.632256,316.60828
"2525",89.81583,316.62164
"2526",88.1532,316.63495
"2527",86.7567,316.64832
"2528",85.63851,316.66162
"2529",84.72053,316.675
"2530",83.90265,316.6883
"2531",83.1165,316.70166
"2532",82.354774,316.71497
"2533",81.671165,316.72833
"2534",81.13893,316.74164
"2535",80.80202,316.755
"2536",80.65064,316.7683
"2537",80.61402,316.78168
"2538",80.59693,316.79498
"2539",80.51881,316.80835
"2540",80.31617,316.82166
"2541",79.96216,316.83502
"2542",79.45678,316.84833
"2543",78.82445,316.8617
"2544",78.099335,316.875
"2545",77.3254,316.88837
"2546",76.544136,316.90167
"2547",75.79462,316.91504
"2548",75.0988,316.92834
"2549",74.48356,316.9417
"2550",73.953766,316.95502
"2551",73.51186,316.96838
"2552",73.16518,316.9817
"2553",72.90639,316.99506
"2554",72.71595,317.00836
"2555",72.59144,317.02173
"2556",72.50843,317.03503
"2557",72.444954,317.0484
"2558",72.3888,317.0617
"2559",72.33509,317.07507
"2560",72.2765,317.08838
"2561",72.25208,317.10175
"2562",72.39857,317.11505
"2563",73.006485,317.12842
"2564",74.42985,317.14172
"2565",76.91524,317.1551
"2566",80.4358,317.1684
"2567",84.6424,317.18176
"2568",88.91737,317.19507
"2569",92.57954,317.20844
"2570",95.10399,317.22174
"2571",96.3003,317.2351
"2572",96.27589,317.2484
"2573",95.328606,317.26178
"2574",93.81735,317.2751
"2575",92.08148,317.28845
"2576",90.38468,317.30176
"2577",88.90517,317.31512
"2578",87.70641,317.32843
"2579",86.744484,317.3418
"2580",85.909515,317.3551
"2581",85.09407,317.36847
"2582",84.22003,317.38177
"2583",83.302055,317.39514
"2584",82.41337,317.40845
"2585",81.651634,317.4218
"2586",81.0901,317.43512
"2587",80.73853,317.4485
"2588",80.54566,317.4618
"2589",80.42359,317.47516
"2590",80.28199,317.48846
"2591",80.05493,317.50183
"2592",79.68871,317.51514
"2593",79.17357,317.5285
"2594",78.52415,317.5418
"2595",77.7673,317.55518
"2596",76.95186,317.56848
"2597",76.12421,317.58185
"2598",75.33318,317.59515
"2599",74.60563,317.60852
"2600",73.968414,317.62183
"2601",73.4313,317.6352
"2602",72.989395,317.6485
"2603",72.62806,317.66187
"2604",72.342415,317.67517
"2605",72.10803,317.68854
"2606",71.91272,317.70184
"2607",71.74181,317.7152
"2608",71.59533,317.72852
"2609",71.465935,317.74188
"2610",71.38781,317.7552
"2611",71.502556,317.76855
"2612",72.10559,317.78186
"2613",73.55581,317.79523
"2614",76.09735,317.80853
"2615",79.70092,317.8219
"2616",84.000305,317.8352
"2617",88.36561,317.84857
"2618",92.088806,317.86188
"2619",94.64744,317.87524
"2620",95.84863,317.88855
"2621",95.81201,317.90192
"2622",94.85008,317.91522
"2623",93.33883,317.9286
"2624",91.61761,317.9419
"2625",89.94522,317.95526
"2626",88.49012,317.96857
"2627",87.2987,317.98193
"2628",86.32212,317.99524
"2629",85.452965,318.0086
"2630",84.56916,318.0219
"2631",83.59991,318.03528
"2632",82.562294,318.04858
"2633",81.53933,318.06195
"2634",80.65064,318.07526
"2635",79.98169,318.08862
"2636",79.571526,318.10193
"2637",79.36645,318.1153
"2638",79.27856,318.1286
"2639",79.19798,318.14197
"2640",79.03929,318.15527
"2641",78.74387,318.16864
"2642",78.2971,318.18195
"2643",77.713585,318.1953
"2644",77.02266,318.20862
"2645",76.265816,318.222
"2646",75.48455,318.2353
"2647",74.71793,318.24866
"2648",73.99283,318.26196
"2649",73.338524,318.27533
"2650",72.77211,318.28864
"2651",72.291145,318.302
"2652",71.89563,318.3153
"2653",71.568474,318.32867
"2654",71.3048,318.34198
"2655",71.08507,318.35535
"2656",70.89708,318.36865
"2657",70.73594,318.38202
"2658",70.606544,318.39532
"2659",70.54795,318.4087
"2660",70.7335,318.422
"2661",71.47814,318.43536
"2662",73.13588,318.44867
"2663",75.911804,318.46204
"2664",79.710686,318.47534
"2665",84.11017,318.4887
"2666",88.43885,318.502
"2667",92.01068,318.51538
"2668",94.34959,318.5287
"2669",95.33349,318.54205
"2670",95.12352,318.55536
"2671",94.05905,318.56873
"2672",92.489204,318.58203
"2673",90.74357,318.5954
"2674",89.05653,318.6087
"2675",87.572136,318.62207
"2676",86.30991,318.63538
"2677",85.21858,318.64874
"2678",84.2005,318.66205
"2679",83.18486,318.6754
"2680",82.15457,318.68872
"2681",81.15602,318.7021
"2682",80.291756,318.7154
"2683",79.65209,318.72876
"2684",79.273674,318.74207
"2685",79.11986,318.75543
"2686",79.10521,318.76874
"2687",79.11986,318.7821
"2688",79.061264,318.7954
"2689",78.86351,318.80878
"2690",78.49729,318.82208
"2691",77.962616,318.83545
"2692",77.298546,318.84875
"2693",76.54902,318.86212
"2694",75.76044,318.87543
"2695",74.97917,318.8888
"2696",74.249176,318.9021
"2697",73.599754,318.91547
"2698",73.040665,318.92877
"2699",72.569466,318.94214
"2700",72.18616,318.95544
"2701",71.885864,318.9688
"2702",71.65392,318.98212
"2703",71.48058,318.99548
"2704",71.35363,319.0088
"2705",71.255974,319.02216
"2706",71.1754,319.03546
"2707",71.10216,319.04883
"2708",71.03868,319.06213
"2709",71.0045,319.0755
"2710",71.07042,319.0888
"2711",71.42931,319.10217
"2712",72.40101,319.11548
"2713",74.29069,319.12885
"2714",77.23262,319.14215
"2715",81.06081,319.15552
"2716",85.30648,319.16882
"2717",89.32021,319.1822
"2718",92.474556,319.1955
"2719",94.383766,319.20886
"2720",94.991684,319.22217
"2721",94.49851,319.23553
"2722",93.22896,319.24884
"2723",91.51751,319.2622
"2724",89.654686,319.2755
"2725",87.83826,319.28888
"2726",86.17319,319.3022
"2727",84.67414,319.31555
"2728",83.3167,319.32886
"2729",82.07645,319.34222
"2730",80.96071,319.35553
"2731",80.025635,319.3689
"2732",79.33715,319.3822
"2733",78.95384,319.39557
"2734",78.86839,319.40887
"2735",79.012436,319.42224
"2736",79.26147,319.43555
"2737",79.49096,319.4489
"2738",79.588615,319.46222
"2739",79.4934,319.4756
"2740",79.18089,319.4889
"2741",78.675514,319.50226
"2742",78.01877,319.51556
"2743",77.264366,319.52893
"2744",76.46601,319.54224
"2745",75.665215,319.5556
"2746",74.896164,319.5689
"2747",74.18326,319.58228
"2748",73.548485,319.59558
"2749",73.00404,319.60895
"2750",72.552376,319.62225
"2751",72.19592,319.63562
"2752",71.94202,319.64893
"2753",71.783325,319.6623
"2754",71.7174,319.6756
"2755",71.73937,319.68896
"2756",71.83215,319.70227
"2757",71.96399,319.71564
"2758",72.10803,319.72894
"2759",72.232544,319.7423
"2760",72.318,319.7556
"2761",72.34486,319.76898
"2762",72.31312,319.7823
"2763",72.24719,319.79565
"2764",72.256966,319.80896
"2765",72.57923,319.82233
"2766",73.57046,319.83563
"2767",75.52361,319.849
"2768",78.504616,319.8623
"2769",82.269325,319.87567
"2770",86.29038,319.88898
"2771",89.901276,319.90234
"2772",92.523384,319.91565
"2773",93.87106,319.92902
"2774",93.96628,319.94232
"2775",93.03853,319.9557
"2776",91.407646,319.969
"2777",89.38369,319.98236
"2778",87.218124,319.99567
"2779",85.08675,320.00903
"2780",83.089645,320.02234
"2781",81.290306,320.0357
"2782",79.7522,320.049
"2783",78.54368,320.06238
"2784",77.74532,320.07568
"2785",77.40597,320.08905
"2786",77.51827,320.10236
"2787",77.99924,320.11572
"2788",78.69749,320.12903
"2789",79.43481,320.1424
"2790",80.05005,320.1557
"2791",80.428474,320.16907
"2792",80.516365,320.18237
"2793",80.306404,320.19574
"2794",79.84497,320.20905
"2795",79.19798,320.2224
"2796",78.43626,320.23572
"2797",77.61837,320.24908
"2798",76.79805,320.2624
"2799",76.0119,320.27576
"2800",75.2868,320.28906
"2801",74.64225,320.30243
"2802",74.092926,320.31573
"2803",73.6437,320.3291
"2804",73.29946,320.3424
"2805",73.060196,320.35577
"2806",72.91615,320.36908
"2807",72.85268,320.38245
"2808",72.85512,320.39575
"2809",72.901505,320.40912
"2810",72.97719,320.42242
"2811",73.060196,320.4358
"2812",73.13832,320.4491
"2813",73.20668,320.46246
"2814",73.253075,320.47577
"2815",73.26772,320.48914
"2816",73.253075,320.50244
"2817",73.214005,320.5158
"2818",73.17738,320.5291
"2819",73.24574,320.54248
"2820",73.65835,320.5558
"2821",74.74723,320.56915
"2822",76.76143,320.58246
"2823",79.725334,320.59583
"2824",83.372856,320.60913
"2825",87.186386,320.6225
"2826",90.531166,320.6358
"2827",92.88472,320.64917
"2828",94.01022,320.66248
"2829",93.94675,320.67584
"2830",92.9189,320.68915
"2831",91.21477,320.7025
"2832",89.12245,320.71582
"2833",86.86656,320.7292
"2834",84.610664,320.7425
"2835",82.46952,320.75586
"2836",80.53101,320.76917
"2837",78.905014,320.78253
"2838",77.68917,320.79584
"2839",76.98604,320.8092
"2840",76.84932,320.8225
"2841",77.24727,320.83588
"2842",78.048065,320.84918
"2843",79.05638,320.86255
"2844",80.05005,320.87585
"2845",80.85817,320.88922
"2846",81.358665,320.90253
"2847",81.512474,320.9159
"2848",81.341576,320.9292
"2849",80.90456,320.94257
"2850",80.26978,320.95587
"2851",79.51537,320.96924
"2852",78.69993,320.98254
"2853",77.87961,320.9959
"2854",77.08858,321.00922
"2855",76.35615,321.02258
"2856",75.70428,321.0359
"2857",75.140305,321.04926
"2858",74.67399,321.06256
"2859",74.30778,321.07593
"2860",74.03677,321.08923
"2861",73.85123,321.1026
"2862",73.75357,321.1159
"2863",73.72915,321.12927
"2864",73.76578,321.14258
"2865",73.85123,321.15594
"2866",73.96597,321.16925
"2867",74.08804,321.18262
"2868",74.20523,321.19592
"2869",74.30045,321.2093
"2870",74.36637,321.2226
"2871",74.39567,321.23596
"2872",74.390785,321.24927
"2873",74.36637,321.26263
"2874",74.407875,321.27594
"2875",74.737465,321.2893
"2876",75.67986,321.3026
"2877",77.523155,321.31598
"2878",80.32838,321.32928
"2879",83.89288,321.34265
"2880",87.728386,321.35596
"2881",91.21477,321.36932
"2882",93.802704,321.38263
"2883",95.19676,321.396
"2884",95.39208,321.4093
"2885",94.56687,321.42267
"2886",92.997025,321.43597
"2887",90.9633,321.44934
"2888",88.70496,321.46265
"2889",86.400246,321.476
"2890",84.18585,321.48932
"2891",82.144806,321.5027
"2892",80.35279,321.516
"2893",78.9099,321.52936
"2894",77.91867,321.54266
"2895",77.46212,321.55603
"2896",77.57198,321.56934
"2897",78.17502,321.5827
"2898",79.11009,321.596
"2899",80.16724,321.60938
"2900",81.13161,321.62268
"2901",81.846954,321.63605
"2902",82.22049,321.64935
"2903",82.247345,321.66272
"2904",81.96658,321.67603
"2905",81.449,321.6894
"2906",80.77028,321.7027
"2907",80.0061,321.71606
"2908",79.21019,321.72937
"2909",78.42405,321.74274
"2910",77.68185,321.75604
"2911",77.00069,321.7694
"2912",76.40009,321.7827
"2913",75.88739,321.79608
"2914",75.46014,321.8094
"2915",75.125656,321.82275
"2916",74.87419,321.83606
"2917",74.70817,321.84943
"2918",74.60807,321.86273
"2919",74.57145,321.8761
"2920",74.581215,321.8894
"2921",74.617836,321.90277
"2922",74.666664,321.91608
"2923",74.71793,321.92944
"2924",74.759445,321.94275
"2925",74.77409,321.95612
"2926",74.757,321.96942
"2927",74.71793,321.9828
"2928",74.71793,321.9961
"2929",74.94499,322.00946
"2930",75.72869,322.02277
"2931",77.383995,322.03613
"2932",80.042725,322.04944
"2933",83.563286,322.0628
"2934",87.51598,322.0761
"2935",91.27581,322.08948
"2936",94.2446,322.10278
"2937",96.05859,322.11615
"2938",96.63477,322.12946
"2939",96.11963,322.14282
"2940",94.75975,322.15613
"2941",92.843216,322.1695
"2942",90.62638,322.1828
"2943",88.31434,322.19617
"2944",86.06088,322.20947
"2945",83.97101,322.22284
"2946",82.108185,322.23615
"2947",80.54322,322.2495
"2948",79.35668,322.26282
"2949",78.62913,322.27618
"2950",78.41917,322.2895
"2951",78.70481,322.30286
"2952",79.381096,322.31616
"2953",80.26978,322.32953
"2954",81.16579,322.34283
"2955",81.8909,322.3562
"2956",82.32792,322.3695
"2957",82.4329,322.38287
"2958",82.22293,322.39618
"2959",81.75418,322.40955
"2960",81.0901,322.42285
"2961",80.308846,322.43622
"2962",79.47631,322.44952
"2963",78.64622,322.4629
"2964",77.85031,322.4762
"2965",77.117874,322.48956
"2966",76.46601,322.50287
"2967",75.90204,322.51624
"2968",75.43084,322.52954
"2969",75.0573,322.5429
"2970",74.776535,322.5562
"2971",74.57877,322.56958
"2972",74.44694,322.5829
"2973",74.36149,322.59625
"2974",74.31022,322.60956
"2975",74.268715,322.62292
"2976",74.229645,322.63623
"2977",74.18082,322.6496
"2978",74.13199,322.6629
"2979",74.15152,322.67627
"2980",74.43473,322.68958
"2981",75.28924,322.70294
"2982",77.00557,322.71625
"2983",79.676506,322.7296
"2984",83.12627,322.74292
"2985",86.905624,322.7563
"2986",90.41398,322.7696
"2987",93.08736,322.78296
"2988",94.61814,322.79626
"2989",94.96483,322.80963
"2990",94.295876,322.82294
"2991",92.87251,322.8363
"2992",90.9633,322.8496
"2993",88.80751,322.86298
"2994",86.590675,322.87628
"2995",84.44953,322.88965
"2996",82.46952,322.90295
"2997",80.723885,322.91632
"2998",79.27856,322.92963
"2999",78.21164,322.943
"3000",77.59884,322.9563
"3001",77.49386,322.96967
"3002",77.872284,322.98297
"3003",78.63157,322.99634
"3004",79.5935,323.00964
"3005",80.55787,323.023
"3006",81.35378,323.03632
"3007",81.87625,323.04968
"3008",82.08377,323.063
"3009",81.99588,323.07635
"3010",81.6614,323.08966
"3011",81.13649,323.10303
"3012",80.479744,323.11633
"3013",79.74975,323.1297
"3014",78.99779,323.143
"3015",78.260475,323.15637
"3016",77.57931,323.16968
"3017",76.96651,323.18304
"3018",76.43183,323.19635
"3019",75.982605,323.20972
"3020",75.6115,323.22302
"3021",75.30633,323.2364
"3022",75.052414,323.2497
"3023",74.83513,323.26306
"3024",74.63981,323.27637
"3025",74.461586,323.28973
"3026",74.29313,323.30304
"3027",74.15152,323.3164
"3028",74.11734,323.3297
"3029",74.39811,323.34308
"3030",75.301445,323.35638
"3031",77.09346,323.36975
"3032",79.82544,323.38306
"3033",83.28008,323.39642
"3034",86.99107,323.40973
"3035",90.35783,323.4231
"3036",92.8481,323.4364
"3037",94.19333,323.44977
"3038",94.39353,323.46307
"3039",93.63668,323.47644
"3040",92.18402,323.48975
"3041",90.304115,323.5031
"3042",88.23132,323.51642
"3043",86.14877,323.5298
"3044",84.18097,323.5431
"3045",82.41581,323.55646
"3046",80.91188,323.56976
"3047",79.73022,323.58313
"3048",78.92943,323.59644
"3049",78.54124,323.6098
"3050",78.572975,323.6231
"3051",78.96361,323.63647
"3052",79.60082,323.64978
"3053",80.325935,323.66315
"3054",80.98268,323.67645
"3055",81.45388,323.68982
"3056",81.65896,323.70312
"3057",81.583275,323.7165
"3058",81.24147,323.7298
"3059",80.6775,323.74316
"3060",79.94751,323.75647
"3061",79.1223,323.76984
"3062",78.25071,323.78314
"3063",77.39376,323.7965
"3064",76.60029,323.8098
"3065",75.91669,323.82318
"3066",75.3576,323.8365
"3067",74.92058,323.84985
"3068",74.59098,323.86316
"3069",74.339516,323.87653
"3070",74.141754,323.88983
"3071",73.97818,323.9032
"3072",73.83902,323.9165
"3073",73.72671,323.92987
"3074",73.64126,323.94318
"3075",73.62173,323.95654
"3076",73.814606,323.96985
"3077",74.48844,323.98322
"3078",75.945984,323.99652
"3079",78.34104,324.0099
"3080",81.57595,324.0232
"3081",85.27718,324.03656
"3082",88.87587,324.04987
"3083",91.78851,324.06323
"3084",93.61959,324.07654
"3085",94.26414,324.0899
"3086",93.8613,324.1032
"3087",92.65522,324.11658
"3088",90.931564,324.12988
"3089",88.953995,324.14325
"3090",86.93492,324.15656
"3091",85.01839,324.16992
"3092",83.29717,324.18323
"3093",81.82498,324.1966
"3094",80.64332,324.2099
"3095",79.80347,324.22327
"3096",79.344475,324.23657
"3097",79.276115,324.24994
"3098",79.569084,324.26324
"3099",80.12085,324.2766
"3100",80.7776,324.28992
"3101",81.38308,324.30328
"3102",81.80789,324.3166
"3103",81.97391,324.32996
"3104",81.8616,324.34326
"3105",81.49294,324.35663
"3106",80.919205,324.36993
"3107",80.2063,324.3833
"3108",79.4226,324.3966
"3109",78.61936,324.40997
"3110",77.84543,324.42328
"3111",77.12764,324.43665
"3112",76.49287,324.44995
"3113",75.945984,324.46332
"3114",75.48699,324.47662
"3115",75.10857,324.49
"3116",74.80339,324.5033
"3117",74.55436,324.51666
"3118",74.339516,324.52997
"3119",74.1564,324.54333
"3120",73.99527,324.55664
"3121",73.8732,324.57
"3122",73.90494,324.5833
"3123",74.34196,324.59668
"3124",75.494316,324.61
"3125",77.57198,324.62335
"3126",80.550545,324.63666
"3127",84.12726,324.65002
"3128",87.77234,324.66333
"3129",90.880295,324.6767
"3130",92.98482,324.69
"3131",93.89792,324.70337
"3132",93.7026,324.71667
"3133",92.630806,324.73004
"3134",90.97063,324.74335
"3135",89.01015,324.7567
"3136",86.98619,324.77002
"3137",85.05989,324.7834
"3138",83.32891,324.7967
"3139",81.84207,324.81006
"3140",80.62867,324.82336
"3141",79.72045,324.83673
"3142",79.15404,324.85004
"3143",78.94408,324.8634
"3144",79.06859,324.8767
"3145",79.449455,324.89008
"3146",79.95972,324.90338
"3147",80.45777,324.91675
"3148",80.82155,324.93005
"3149",80.96803,324.94342
"3150",80.87282,324.95673
"3151",80.54078,324.9701
"3152",80.0061,324.9834
"3153",79.32006,324.99677
"3154",78.54856,325.01007
"3155",77.752655,325.02344
"3156",76.97627,325.03674
"3157",76.25605,325.0501
"3158",75.62127,325.06342
"3159",75.07439,325.07678
"3160",74.617836,325.0901
"3161",74.246735,325.10345
"3162",73.94644,325.11676
"3163",73.69741,325.13013
"3164",73.48989,325.14343
"3165",73.306786,325.1568
"3166",73.145645,325.1701
"3167",73.02846,325.18347
"3168",73.060196,325.19678
"3169",73.48745,325.21014
"3170",74.617836,325.22345
"3171",76.67841,325.23682
"3172",79.66674,325.25012
"3173",83.29229,325.2635
"3174",87.03258,325.2768
"3175",90.27482,325.29016
"3176",92.53071,325.30347
"3177",93.58297,325.31683
"3178",93.487755,325.33014
"3179",92.472115,325.3435
"3180",90.83391,325.3568
"3181",88.85878,325.37018
"3182",86.803085,325.38348
"3183",84.842606,325.39685
"3184",83.07988,325.41016
"3185",81.566185,325.42352
"3186",80.33326,325.43683
"3187",79.41039,325.4502
"3188",78.82445,325.4635
"3189",78.59495,325.47687
"3190",78.69749,325.49017
"3191",79.05638,325.50354
"3192",79.54223,325.51685
"3193",80.01343,325.5302
"3194",80.34547,325.54352
"3195",80.46021,325.5569
"3196",80.3357,325.5702
"3197",79.98169,325.58356
"3198",79.43481,325.59686
"3199",78.75365,325.61023
"3200",77.98947,325.62354
"3201",77.19844,325.6369
"3202",76.42939,325.6502
"3203",75.716484,325.66357
"3204",75.08171,325.67688
"3205",74.53483,325.69025
"3206",74.07095,325.70355
"3207",73.6852,325.71692
"3208",73.358055,325.73022
"3209",73.08217,325.7436
"3210",72.84291,325.7569
"3211",72.6305,325.77026
"3212",72.45228,325.78357
"3213",72.376595,325.79694
"3214",72.59632,325.81024
"3215",73.41665,325.8236
"3216",75.13786,325.8369
"3217",77.86984,325.85028
"3218",81.43923,325.8636
"3219",85.38705,325.87695
"3220",89.09071,325.89026
"3221",91.947205,325.90363
"3222",93.592735,325.91693
"3223",93.978485,325.9303
"3224",93.28512,325.9436
"3225",91.81537,325.95697
"3226",89.89639,325.97028
"3227",87.818726,325.98364
"3228",85.80698,325.99695
"3229",83.98566,326.0103
"3230",82.408485,326.02362
"3231",81.09743,326.037
"3232",80.0647,326.0503
"3233",79.327385,326.06366
"3234",78.91234,326.07697
"3235",78.819565,326.09033
"3236",79.009995,326.10364
"3237",79.37621,326.117
"3238",79.79126,326.1303
"3239",80.12573,326.14368
"3240",80.28199,326.15698
"3241",80.21362,326.17035
"3242",79.90845,326.18365
"3243",79.3933,326.19702
"3244",78.71702,326.21033
"3245",77.93576,326.2237
"3246",77.11543,326.237
"3247",76.30976,326.25037
"3248",75.560234,326.26367
"3249",74.88884,326.27704
"3250",74.29801,326.29034
"3251",73.79263,326.3037
"3252",73.36294,326.31702
"3253",72.99672,326.33038
"3254",72.68665,326.3437
"3255",72.427864,326.35706
"3256",72.20813,326.37036
"3257",72.03967,326.38373
"3258",72.02014,326.39703
"3259",72.38392,326.4104
"3260",73.47036,326.4237
"3261",75.545586,326.43707
"3262",78.65354,326.45038
"3263",82.528114,326.46375
"3264",86.61997,326.47705
"3265",90.26261,326.49042
"3266",92.87984,326.50372
"3267",94.20065,326.5171
"3268",94.261696,326.5304
"3269",93.30465,326.54376
"3270",91.67376,326.55707
"3271",89.703514,326.57043
"3272",87.68444,326.58374
"3273",85.80942,326.5971
"3274",84.16876,326.6104
"3275",82.77959,326.62378
"3276",81.61501,326.6371
"3277",80.65797,326.65045
"3278",79.906006,326.66376
"3279",79.395744,326.67712
"3280",79.149155,326.69043
"3281",79.15404,326.7038
"3282",79.32983,326.7171
"3283",79.56176,326.73047
"3284",79.725334,326.74377
"3285",79.73266,326.75714
"3286",79.53979,326.77045
"3287",79.149155,326.7838
"3288",78.59251,326.79712
"3289",77.91379,326.8105
"3290",77.1667,326.8238
"3291",76.39765,326.83716
"3292",75.65301,326.85046
"3293",74.96208,326.86383
"3294",74.34196,326.87714
"3295",73.8024,326.8905
"3296",73.32876,326.9038
"3297",72.91371,326.91718
"3298",72.54749,326.93048
"3299",72.22278,326.94385
"3300",71.93713,326.95715
"3301",71.690544,326.97052
"3302",71.502556,326.98383
"3303",71.483025,326.9972
"3304",71.87854,327.0105
"3305",73.03578,327.02386
"3306",75.22575,327.03717
"3307",78.49241,327.05054
"3308",82.55497,327.06384
"3309",86.84947,327.0772
"3310",90.68253,327.0905
"3311",93.47555,327.10388
"3312",94.93309,327.1172
"3313",95.10643,327.13055
"3314",94.24948,327.14386
"3315",92.72358,327.15723
"3316",90.89006,327.17053
"3317",89.05653,327.1839
"3318",87.41833,327.1972
"3319",86.056,327.21057
"3320",84.945145,327.22388
"3321",83.99542,327.23724
"3322",83.11894,327.25055
"3323",82.269325,327.26392
"3324",81.46609,327.27722
"3325",80.765396,327.2906
"3326",80.22827,327.3039
"3327",79.86694,327.31726
"3328",79.64233,327.33057
"3329",79.483635,327.34393
"3330",79.30785,327.35724
"3331",79.05394,327.3706
"3332",78.692604,327.3839
"3333",78.21408,327.39728
"3334",77.63302,327.41058
"3335",76.97383,327.42395
"3336",76.27558,327.43726
"3337",75.562675,327.45062
"3338",74.86687,327.46393
"3339",74.21011,327.4773
"3340",73.61196,327.4906
"3341",73.074844,327.50397
"3342",72.603645,327.51727
"3343",72.1886,327.53064
"3344",71.82727,327.54395
"3345",71.51476,327.5573
"3346",71.2462,327.57062
"3347",71.01915,327.58398
"3348",70.85802,327.5973
"3349",70.853134,327.61066
"3350",71.22911,327.62396
"3351",72.318,327.63733
"3352",74.407875,327.65063
"3353",77.5671,327.664
"3354",81.549095,327.6773
"3355",85.83139,327.69067
"3356",89.73525,327.70398
"3357",92.65766,327.71735
"3358",94.28855,327.73065
"3359",94.65232,327.74402
"3360",93.99802,327.75732
"3361",92.69428,327.7707
"3362",91.107346,327.784
"3363",89.532616,327.79736
"3364",88.1532,327.81067
"3365",87.02525,327.82404
"3366",86.10239,327.83734
"3367",85.26986,327.8507
"3368",84.40559,327.864
"3369",83.441216,327.87738
"3370",82.40116,327.8907
"3371",81.37087,327.90405
"3372",80.45289,327.91736
"3373",79.7351,327.93073
"3374",79.234604,327.94403
"3375",78.90013,327.9574
"3376",78.65354,327.9707
"3377",78.416725,327.98407
"3378",78.116425,327.99738
"3379",77.71603,328.01074
"3380",77.21065,328.02405
"3381",76.612495,328.0374
"3382",75.9411,328.05072
"3383",75.23064,328.0641
"3384",74.51774,328.0774
"3385",73.83414,328.09076
"3386",73.2018,328.10406
"3387",72.64271,328.11743
"3388",72.17151,328.13074
"3389",71.77844,328.1441
"3390",71.45617,328.1574
"3391",71.19005,328.17078
"3392",70.97032,328.18408
"3393",70.77989,328.19745
"3394",70.61387,328.21075
"3395",70.47471,328.22412
"3396",70.37461,328.23743
"3397",70.34287,328.2508
"3398",70.49668,328.2641
"3399",71.08995,328.27747
"3400",72.46204,328.29077
"3401",74.85222,328.30414
"3402",78.25071,328.31744
"3403",82.34257,328.3308
"3404",86.54917,328.34412
"3405",90.196686,328.35748
"3406",92.76265,328.3708
"3407",94.029755,328.38416
"3408",94.10788,328.39746
"3409",93.30221,328.41083
"3410",91.99359,328.42413
"3411",90.52384,328.4375
"3412",89.15175,328.4508
"3413",88.0116,328.46417
"3414",87.10582,328.47748
"3415",86.34165,328.49084
"3416",85.57992,328.50415
"3417",84.71076,328.51752
"3418",83.69756,328.53082
"3419",82.58915,328.5442
"3420",81.495384,328.5575
"3421",80.54078,328.57086
"3422",79.798584,328.58417
"3423",79.273674,328.59753
"3424",78.91722,328.61084
"3425",78.64622,328.6242
"3426",78.382545,328.6375
"3427",78.06027,328.65088
"3428",77.65011,328.66418
"3429",77.14473,328.67755
"3430",76.55634,328.69086
"3431",75.90448,328.70422
"3432",75.21599,328.71753
"3433",74.527504,328.7309
"3434",73.85611,328.7442
"3435",73.22133,328.75757
"3436",72.65003,328.77087
"3437",72.1593,328.78424
"3438",71.763794,328.79755
"3439",71.47082,328.8109
"3440",71.2633,328.82422
"3441",71.12901,328.8376
"3442",71.04845,328.8509
"3443",71.00206,328.86426
"3444",70.96788,328.87756
"3445",70.94347,328.89093
"3446",70.91905,328.90424
"3447",70.887314,328.9176
"3448",70.853134,328.9309
"3449",70.84093,328.94427
"3450",70.95079,328.95758
"3451",71.42443,328.97095
"3452",72.59388,328.98425
"3453",74.74723,328.99762
"3454",77.93576,329.01093
"3455",81.91043,329.0243
"3456",86.12192,329.0376
"3457",89.90616,329.05096
"3458",92.682076,329.06427
"3459",94.168915,329.07764
"3460",94.415504,329.09094
"3461",93.714806,329.1043
"3462",92.455025,329.1176
"3463",90.99748,329.13098
"3464",89.62783,329.1443
"3465",88.50233,329.15765
"3466",87.62829,329.17096
"3467",86.91539,329.18433
"3468",86.219574,329.19763
"3469",85.42611,329.211
"3470",84.47883,329.2243
"3471",83.4168,329.23767
"3472",82.34501,329.25098
"3473",81.38796,329.26434
"3474",80.62623,329.27765
"3475",80.08179,329.29102
"3476",79.71313,329.30432
"3477",79.43725,329.3177
"3478",79.168686,329.331
"3479",78.84398,329.34436
"3480",78.42893,329.35767
"3481",77.91623,329.37103
"3482",77.31075,329.38434
"3483",76.64179,329.3977
"3484",75.93622,329.411
"3485",75.21599,329.42438
"3486",74.50797,329.43768
"3487",73.83414,329.45105
"3488",73.21889,329.46436
"3489",72.672005,329.47772
"3490",72.20569,329.49103
"3491",71.82483,329.5044
"3492",71.54162,329.5177
"3493",71.346306,329.53107
"3494",71.236435,329.54437
"3495",71.199814,329.55774
"3496",71.22179,329.57104
"3497",71.275505,329.5844
"3498",71.34142,329.59772
"3499",71.397575,329.61108
"3500",71.431755,329.6244
"3501",71.43664,329.63776
"3502",71.4049,329.65106
"3503",71.34875,329.66443
"3504",71.29504,329.67773
"3505",71.346306,329.6911
"3506",71.75891,329.7044
"3507",72.884415,329.71777
"3508",75.020676,329.73108
"3509",78.23361,329.74445
"3510",82.27665,329.75775
"3511",86.598,329.77112
"3512",90.50919,329.78442
"3513",93.41451,329.7978
"3514",95.00877,329.8111
"3515",95.326164,329.82446
"3516",94.63767,329.83777
"3517",93.3193,329.85114
"3518",91.747,329.86444
"3519",90.23331,329.8778
"3520",88.96132,329.8911
"3521",87.97986,329.90448
"3522",87.220566,329.9178
"3523",86.54185,329.93115
"3524",85.8143,329.94446
"3525",84.95979,329.95782
"3526",84.000305,329.97113
"3527",83.021286,329.9845
"3528",82.13504,329.9978
"3529",81.4197,330.01117
"3530",80.88991,330.02448
"3531",80.51392,330.03784
"3532",80.21118,330.05115
"3533",79.91333,330.0645
"3534",79.56176,330.07782
"3535",79.12718,330.0912
"3536",78.60227,330.1045
"3537",77.996796,330.11786
"3538",77.32784,330.13116
"3539",76.62226,330.14453
"3540",75.90692,330.15784
"3541",75.20134,330.1712
"3542",74.529945,330.1845
"3543",73.90982,330.19788
"3544",73.35317,330.21118
"3545",72.86977,330.22455
"3546",72.46693,330.23785
"3547",72.14465,330.25122
"3548",71.91028,330.26453
"3549",71.75647,330.2779
"3550",71.67834,330.2912
"3551",71.67101,330.30457
"3552",71.71984,330.31787
"3553",71.8053,330.33124
"3554",71.905396,330.34454
"3555",71.99817,330.3579
"3556",72.06653,330.37122
"3557",72.095825,330.38458
"3558",72.08362,330.3979
"3559",72.03479,330.41125
"3560",71.956665,330.42456
"3561",71.89075,330.43793
"3562",71.96643,330.45123
"3563",72.47669,330.4646
"3564",73.78775,330.4779
"3565",76.17059,330.49127
"3566",79.63256,330.50458
"3567",83.85626,330.51794
"3568",88.23132,330.53125
"3569",92.052185,330.54462
"3570",94.747536,330.55792
"3571",96.078125,330.5713
"3572",96.13916,330.5846
"3573",95.235825,330.59796
"3574",93.751434,330.61127
"3575",92.06195,330.62463
"3576",90.45548,330.63794
"3577",89.1078,330.6513
"3578",88.05798,330.6646
"3579",87.235214,330.67798
"3580",86.51255,330.69128
"3581",85.7728,330.70465
"3582",84.945145,330.71796
"3583",84.054016,330.73132
"3584",83.177536,330.74463
"3585",82.408485,330.758
"3586",81.80789,330.7713
"3587",81.37087,330.78467
"3588",81.04616,330.79797
"3589",80.765396,330.81134
"3590",80.45777,330.82465
"3591",80.076904,330.838
"3592",79.603264,330.85132
"3593",79.03929,330.8647
"3594",78.399635,330.878
"3595",77.696495,330.89136
"3596",76.95918,330.90466
"3597",76.21454,330.91803
"3598",75.48455,330.93134
"3599",74.79607,330.9447
"3600",74.17105,330.958
"3601",73.619286,330.97137
"3602",73.15297,330.98468
"3603",72.76967,330.99805
"3604",72.481575,331.01135
"3605",72.27894,331.02472
"3606",72.16174,331.03802
"3607",72.12024,331.0514
"3608",72.14221,331.0647
"3609",72.20325,331.07806
"3610",72.28626,331.09137
"3611",72.36927,331.10474
"3612",72.43763,331.11804
"3613",72.47913,331.1314
"3614",72.481575,331.1447
"3615",72.44007,331.15808
"3616",72.361946,331.1714
"3617",72.2765,331.18475
"3618",72.28382,331.19806
"3619",72.63538,331.21143
"3620",73.704735,331.22473
"3621",75.80194,331.2381
"3622",79.01488,331.2514
"3623",83.10185,331.26477
"3624",87.50622,331.27808
"3625",91.510185,331.29144
"3626",94.47654,331.30475
"3627",96.078125,331.3181
"3628",96.327156,331.33142
"3629",95.499504,331.3448
"3630",93.97604,331.3581
"3631",92.14252,331.37146
"3632",90.32365,331.38477
"3633",88.72694,331.39813
"3634",87.43786,331.41144
"3635",86.43687,331.4248
"3636",85.62142,331.4381
"3637",84.87923,331.45148
"3638",84.137024,331.46478
"3639",83.38262,331.47815
"3640",82.669716,331.49146
"3641",82.06668,331.50482
"3642",81.619896,331.51813
"3643",81.3196,331.5315
"3644",81.11452,331.5448
"3645",80.92897,331.55817
"3646",80.689705,331.57147
"3647",80.35523,331.58484
"3648",79.906006,331.59814
"3649",79.34203,331.6115
"3650",78.68528,331.62482
"3651",77.9675,331.63818
"3652",77.21553,331.6515
"3653",76.45869,331.66486
"3654",75.718925,331.67816
"3655",75.020676,331.69153
"3656",74.38102,331.70483
"3657",73.812164,331.7182
"3658",73.321434,331.7315
"3659",72.90883,331.74487
"3660",72.57923,331.75818
"3661",72.33265,331.77155
"3662",72.16907,331.78485
"3663",72.08606,331.79822
"3664",72.08362,331.81152
"3665",72.13977,331.8249
"3666",72.23987,331.8382
"3667",72.35218,331.85156
"3668",72.45716,331.86487
"3669",72.52796,331.87823
"3670",72.55726,331.89154
"3671",72.532845,331.9049
"3672",72.47181,331.9182
"3673",72.44984,331.93158
"3674",72.691536,331.9449
"3675",73.54116,331.95825
"3676",75.35027,331.97156
"3677",78.277565,331.98492
"3678",82.16678,331.99823
"3679",86.536964,332.0116
"3680",90.69474,332.0249
"3681",93.96628,332.03827
"3682",95.92676,332.05157
"3683",96.49073,332.06494
"3684",95.86572,332.07825
"3685",94.40818,332.0916
"3686",92.51118,332.10492
"3687",90.528725,332.1183
"3688",88.71717,332.1316
"3689",87.220566,332.14496
"3690",86.046234,332.15826
"3691",85.120926,332.17163
"3692",84.334785,332.18494
"3693",83.614555,332.1983
"3694",82.933395,332.2116
"3695",82.32548,332.22498
"3696",81.85184,332.23828
"3697",81.549095,332.25165
"3698",81.3904,332.26495
"3699",81.307396,332.27832
"3700",81.21706,332.29163
"3701",81.05104,332.305
"3702",80.75563,332.3183
"3703",80.31617,332.33167
"3704",79.742424,332.34497
"3705",79.05882,332.35834
"3706",78.29221,332.37164
"3707",77.486534,332.385
"3708",76.67841,332.39832
"3709",75.897156,332.41168
"3710",75.174484,332.425
"3711",74.52506,332.43835
"3712",73.95865,332.45166
"3713",73.48257,332.46503
"3714",73.10414,332.47833
"3715",72.82094,332.4917
"3716",72.62318,332.505
"3717",72.498665,332.51837
"3718",72.430305,332.53168
"3719",72.396126,332.54504
"3720",72.37415,332.55835
"3721",72.3473,332.57172
"3722",72.30579,332.58502
"3723",72.254524,332.5984
"3724",72.24963,332.6117
"3725",72.47181,332.62506
"3726",73.24574,332.63837
"3727",74.932785,332.65173
"3728",77.73556,332.66504
"3729",81.55398,332.6784
"3730",85.95834,332.6917
"3731",90.27726,332.70508
"3732",93.805145,332.71838
"3733",96.05859,332.73175
"3734",96.90578,332.74506
"3735",96.52003,332.75842
"3736",95.235825,332.77173
"3737",93.44381,332.7851
"3738",91.50286,332.7984
"3739",89.688866,332.81177
"3740",88.16052,332.82507
"3741",86.96422,332.83844
"3742",86.031586,332.85175
"3743",85.240555,332.8651
"3744",84.46662,332.87842
"3745",83.65362,332.89178
"3746",82.81377,332.9051
"3747",82.02762,332.91846
"3748",81.38796,332.93176
"3749",80.94118,332.94513
"3750",80.6775,332.95844
"3751",80.53101,332.9718
"3752",80.411385,332.9851
"3753",80.235596,332.99847
"3754",79.94751,333.01178
"3755",79.51049,333.02515
"3756",78.93187,333.03845
"3757",78.22873,333.05182
"3758",77.44747,333.06512
"3759",76.63203,333.0785
"3760",75.826355,333.0918
"3761",75.06706,333.10516
"3762",74.38346,333.11847
"3763",73.79019,333.13184
"3764",73.287254,333.14514
"3765",72.867325,333.1585
"3766",72.52064,333.1718
"3767",72.234985,333.18518
"3768",71.9884,333.1985
"3769",71.776,333.21185
"3770",71.59777,333.22516
"3771",71.4757,333.23853
"3772",71.51232,333.25183
"3773",71.96643,333.2652
"3774",73.19447,333.2785
"3775",75.494316,333.29187
"3776",78.922104,333.30518
"3777",83.20683,333.31854
"3778",87.767456,333.33185
"3779",91.88861,333.3452
"3780",94.940414,333.35852
"3781",96.61524,333.3719
"3782",96.94484,333.3852
"3783",96.200195,333.39856
"3784",94.74998,333.41187
"3785",92.96529,333.42523
"3786",91.15373,333.43854
"3787",89.52529,333.4519
"3788",88.17761,333.4652
"3789",87.09361,333.47858
"3790",86.16586,333.49188
"3791",85.26498,333.50525
"3792",84.29572,333.51855
"3793",83.24101,333.53192
"3794",82.16922,333.54523
"3795",81.1902,333.5586
"3796",80.413826,333.5719
"3797",79.886475,333.58527
"3798",79.58129,333.59857
"3799",79.42504,333.61194
"3800",79.30785,333.62524
"3801",79.13939,333.6386
"3802",78.84886,333.65192
"3803",78.40452,333.66528
"3804",77.81369,333.6786
"3805",77.10567,333.69196
"3806",76.32685,333.70526
"3807",75.52361,333.71863
"3808",74.74479,333.73193
"3809",74.02945,333.7453
"3810",73.38491,333.7586
"3811",72.82338,333.77197
"3812",72.33753,333.78528
"3813",71.92493,333.79865
"3814",71.56359,333.81195
"3815",71.25109,333.82532
"3816",70.975204,333.83862
"3817",70.7335,333.852
"3818",70.55039,333.8653
"3819",70.518654,333.87866
"3820",70.87755,333.89197
"3821",71.98596,333.90533
"3822",74.161285,333.91864
"3823",77.48165,333.932
"3824",81.7029,333.9453
"3825",86.261086,333.95868
"3826",90.43839,333.972
"3827",93.58785,333.98535
"3828",95.36767,333.99866
"3829",95.79248,334.01202
"3830",95.12596,334.02533
"3831",93.7441,334.0387
"3832",92.02289,334.052
"3833",90.27482,334.06537
"3834",88.70496,334.07867
"3835",87.40368,334.09204
"3836",86.33921,334.10535
"3837",85.40414,334.1187
"3838",84.46418,334.13202
"3839",83.42901,334.1454
"3840",82.29374,334.1587
"3841",81.14137,334.17206
"3842",80.10132,334.18536
"3843",79.28344,334.19873
"3844",78.73899,334.21204
"3845",78.44358,334.2254
"3846",78.3093,334.2387
"3847",78.221405,334.25208
"3848",78.07736,334.26538
"3849",77.803925,334.27875
"3850",77.37423,334.29205
"3851",76.79317,334.30542
"3852",76.09491,334.31873
"3853",75.335625,334.3321
"3854",74.564125,334.3454
"3855",73.82681,334.35876
"3856",73.15785,334.37207
"3857",72.57679,334.38544
"3858",72.09094,334.39874
"3859",71.69787,334.4121
"3860",71.37316,334.4254
"3861",71.097275,334.43878
"3862",70.855576,334.4521
"3863",70.6334,334.46545
"3864",70.42344,334.47876
"3865",70.237885,334.49213
"3866",70.14023,334.50543
"3867",70.3209,334.5188
"3868",71.11192,334.5321
"3869",72.85756,334.54547
"3870",75.71404,334.55878
"3871",79.534904,334.57214
"3872",83.84894,334.58545
"3873",87.9823,334.59882
"3874",91.2636,334.61212
"3875",93.28756,334.6255
"3876",93.99069,334.6388
"3877",93.58541,334.65216
"3878",92.41108,334.66547
"3879",90.826584,334.67883
"3880",89.13466,334.69214
"3881",87.5404,334.7055
"3882",86.14145,334.7188
"3883",84.93782,334.73218
"3884",83.84894,334.74548
"3885",82.79668,334.75885
"3886",81.7322,334.77216
"3887",80.69215,334.78552
"3888",79.766846,334.79883
"3889",79.07347,334.8122
"3890",78.68284,334.8255
"3891",78.5803,334.83887
"3892",78.66331,334.85217
"3893",78.80492,334.86554
"3894",78.88548,334.87885
"3895",78.81224,334.8922
"3896",78.54856,334.90552
"3897",78.10422,334.91888
"3898",77.49874,334.9322
"3899",76.75899,334.94556
"3900",75.91669,334.95886
"3901",75.03044,334.97223
"3902",74.14908,334.98553
"3903",73.3312,334.9989
"3904",72.61585,335.0122
"3905",72.03723,335.02557
"3906",71.588005,335.03888
"3907",71.25109,335.05225
"3908",71.00206,335.06555
"3909",70.82384,335.07892
"3910",70.70176,335.09222
"3911",70.62119,335.1056
"3912",70.57481,335.1189
"3913",70.555275,335.13226
"3914",70.55772,335.14557
"3915",70.6041,335.15894
"3916",70.79942,335.17224
"3917",71.38293,335.1856
"3918",72.66956,335.1989
"3919",74.89372,335.21228
"3920",78.05539,335.2256
"3921",81.87137,335.23895
"3922",85.79233,335.25226
"3923",89.18349,335.26562
"3924",91.54925,335.27893
"3925",92.68452,335.2923
"3926",92.664986,335.3056
"3927",91.76654,335.31897
"3928",90.32365,335.33228
"3929",88.636604,335.34564
"3930",86.939804,335.35895
"3931",85.36263,335.3723
"3932",83.95148,335.38562
"3933",82.69169,335.399
"3934",81.55398,335.4123
"3935",80.5481,335.42566
"3936",79.72045,335.43896
"3937",79.14183,335.45233
"3938",78.86107,335.46564
"3939",78.86595,335.479
"3940",79.078354,335.4923
"3941",79.378654,335.50568
"3942",79.63744,335.51898
"3943",79.74975,335.53235
"3944",79.66918,335.54565
"3945",79.37621,335.55902
"3946",78.890366,335.57233
"3947",78.25071,335.5857
"3948",77.506065,335.599
"3949",76.70771,335.61237
"3950",75.90448,335.62567
"3951",75.140305,335.63904
"3952",74.44938,335.65234
"3953",73.86099,335.6657
"3954",73.39712,335.67902
"3955",73.05531,335.69238
"3956",72.8307,335.7057
"3957",72.69886,335.71906
"3958",72.63294,335.73236
"3959",72.60609,335.74573
"3960",72.584114,335.75903
"3961",72.55726,335.7724
"3962",72.51087,335.7857
"3963",72.44984,335.79907
"3964",72.376595,335.81238
"3965",72.29847,335.82574
"3966",72.2301,335.83905
"3967",72.183716,335.85242
"3968",72.217896,335.86572
"3969",72.4889,335.8791
"3970",73.272606,335.8924
"3971",74.82048,335.90576
"3972",77.22041,335.91907
"3973",80.306404,335.93243
"3974",83.68047,335.94574
"3975",86.78111,335.9591
"3976",89.09071,335.9724
"3977",90.309,335.98578
"3978",90.41154,335.99908
"3979",89.57656,336.01245
"3980",88.08972,336.02576
"3981",86.24887,336.03912
"3982",84.298164,336.05243
"3983",82.406044,336.0658
"3984",80.66041,336.0791
"3985",79.10277,336.09247
"3986",77.806366,336.10577
"3987",76.89082,336.11914
"3988",76.49775,336.13245
"3989",76.629585,336.1458
"3990",77.16182,336.15912
"3991",77.93332,336.1725
"3992",78.77562,336.1858
"3993",79.48852,336.19916
"3994",79.92798,336.21246
"3995",80.059814,336.22583
"3996",79.87915,336.23914
"3997",79.35668,336.2525
"3998",78.49485,336.2658
"3999",77.40353,336.27917
"4000",76.21698,336.29248
"4001",75.028,336.30585
"4002",73.91226,336.31915
"4003",72.938126,336.33252
"4004",72.14465,336.34583
"4005",71.53185,336.3592
"4006",71.08507,336.3725
"4007",70.750595,336.38586
"4008",70.46494,336.39917
"4009",70.186615,336.41254
"4010",69.90097,336.42584
"4011",69.625084,336.4392
"4012",69.40536,336.4525
"4013",69.280846,336.46588
"4014",69.27108,336.4792
"4015",69.35409,336.49255
"4016",69.49325,336.50586
"4017",69.64217,336.51923
"4018",69.771576,336.53253
"4019",69.874115,336.5459
"4020",69.944916,336.5592
"4021",69.979095,336.57257
"4022",69.98398,336.58588
"4023",69.97421,336.59924
"4024",70.05722,336.61255
"4025",70.486916,336.62592
"4026",71.60754,336.63922
"4027",73.673,336.6526
"4028",76.67597,336.6659
"4029",80.308846,336.67926
"4030",84.017395,336.69257
"4031",87.16441,336.70593
"4032",89.254295,336.71924
"4033",90.11124,336.7326
"4034",89.847565,336.7459
"4035",88.7367,336.75928
"4036",87.08385,336.77258
"4037",85.15755,336.78595
"4038",83.15068,336.79926
"4039",81.19508,336.81262
"4040",79.40063,336.82593
"4041",77.86252,336.8393
"4042",76.680855,336.8526
"4043",75.9704,336.86597
"4044",75.809265,336.87927
"4045",76.21454,336.89264
"4046",77.0959,336.90594
"4047",78.28733,336.9193
"4048",79.5642,336.93262
"4049",80.709236,336.94598
"4050",81.55886,336.9593
"4051",82.037384,336.97266
"4052",82.14725,336.98596
"4053",81.94461,336.99933
"4054",81.512474,337.01263
"4055",80.93141,337.026
"4056",80.26734,337.0393
"4057",79.57397,337.05267
"4058",78.890366,337.06598
"4059",78.25315,337.07935
"4060",77.68917,337.09265
"4061",77.208206,337.10602
"4062",76.82002,337.11932
"4063",76.5124,337.1327
"4064",76.27558,337.146
"4065",76.10956,337.15936
"4066",76.00702,337.17267
"4067",75.96796,337.18604
"4068",75.99725,337.19934
"4069",76.087585,337.2127
"4070",76.226746,337.226
"4071",76.39033,337.23938
"4072",76.55146,337.2527
"4073",76.68818,337.26605
"4074",76.7834,337.27936
"4075",76.82002,337.29272
"4076",76.81026,337.30603
"4077",76.7834,337.3194
"4078",76.80049,337.3327
"4079",77.00801,337.34607
"4080",77.68429,337.35938
"4081",79.1638,337.37274
"4082",81.651634,337.38605
"4083",85.084305,337.3994
"4084",89.08583,337.41272
"4085",93.05318,337.4261
"4086",96.33448,337.4394
"4087",98.4683,337.45276
"4088",99.3106,337.46606
"4089",98.99809,337.47943
"4090",97.811554,337.49274
"4091",96.05127,337.5061
"4092",93.97604,337.5194
"4093",91.793396,337.53278
"4094",89.65957,337.54608
"4095",87.68444,337.55945
"4096",85.9559,337.57275
"4097",84.53986,337.58612
"4098",83.51446,337.59943
"4099",82.930954,337.6128
"4100",82.81377,337.6261
"4101",83.11406,337.63947
"4102",83.71465,337.65277
"4103",84.44709,337.66614
"4104",85.13313,337.67944
"4105",85.62386,337.6928
"4106",85.821625,337.70612
"4107",85.70199,337.71948
"4108",85.28451,337.7328
"4109",84.62287,337.74615
"4110",83.7879,337.75946
"4111",82.86992,337.77283
"4112",81.92996,337.78613
"4113",81.02174,337.7995
"4114",80.17944,337.8128
"4115",79.41772,337.82617
"4116",78.74143,337.83948
"4117",78.150604,337.85284
"4118",77.642784,337.86615
"4119",77.22041,337.87952
"4120",76.88594,337.89282
"4121",76.63691,337.9062
"4122",76.46113,337.9195
"4123",76.34638,337.93286
"4124",76.27802,337.94617
"4125",76.23651,337.95953
"4126",76.19745,337.97284
"4127",76.14862,337.9862
"4128",76.07782,337.9995
"4129",75.96796,338.01288
"4130",75.82147,338.02618
"4131",75.66033,338.03955
"4132",75.57,338.05286
"4133",75.76288,338.06622
"4134",76.56367,338.07953
"4135",78.22873,338.0929
"4136",80.78737,338.1062
"4137",83.97589,338.11957
"4138",87.28649,338.13287
"4139",90.121,338.14624
"4140",91.983826,338.15955
"4141",92.66987,338.1729
"4142",92.26215,338.18622
"4143",91.01457,338.1996
"4144",89.215225,338.2129
"4145",87.12047,338.22626
"4146",84.93782,338.23956
"4147",82.8333,338.25293
"4148",80.91676,338.26624
"4149",79.26635,338.2796
"4150",77.93332,338.2929
"4151",76.97383,338.30627
"4152",76.44648,338.31958
"4153",76.387886,338.33295
"4154",76.79317,338.34625
"4155",77.58663,338.35962
"4156",78.626686,338.37292
"4157",79.72045,338.3863
"4158",80.68482,338.3996
"4159",81.375755,338.41296
"4160",81.73464,338.42627
"4161",81.761505,338.43964
"4162",81.51003,338.45294
"4163",81.04616,338.4663
"4164",80.44068,338.4796
"4165",79.76196,338.49298
"4166",79.05638,338.5063
"4167",78.37278,338.51965
"4168",77.74044,338.53296
"4169",77.188675,338.54633
"4170",76.734566,338.55963
"4171",76.39277,338.573
"4172",76.16327,338.5863
"4173",76.050964,338.59967
"4174",76.03876,338.61298
"4175",76.09979,338.62634
"4176",76.19745,338.63965
"4177",76.30488,338.653
"4178",76.404976,338.66632
"4179",76.4831,338.6797
"4180",76.53681,338.693
"4181",76.57099,338.70636
"4182",76.595406,338.71967
"4183",76.64179,338.73303
"4184",76.84932,338.74634
"4185",77.486534,338.7597
"4186",78.853745,338.773
"4187",81.10231,338.78638
"4188",84.11017,338.79968
"4189",87.49889,338.81305
"4190",90.69474,338.82635
"4191",93.136185,338.83972
"4192",94.47654,338.85303
"4193",94.67429,338.8664
"4194",93.910126,338.8797
"4195",92.457466,338.89307
"4196",90.57511,338.90637
"4197",88.49256,338.91974
"4198",86.38804,338.93304
"4199",84.403145,338.9464
"4200",82.64042,338.95972
"4201",81.163345,338.97308
"4202",80.02075,338.9864
"4203",79.25414,338.99976
"4204",78.89281,339.01306
"4205",78.94652,339.02643
"4206",79.39086,339.03973
"4207",80.14038,339.0531
"4208",81.05104,339.0664
"4209",81.9617,339.07977
"4210",82.718544,339.09308
"4211",83.2166,339.10645
"4212",83.41192,339.11975
"4213",83.30694,339.13312
"4214",82.948044,339.14642
"4215",82.391396,339.1598
"4216",81.705345,339.1731
"4217",80.96071,339.18646
"4218",80.21118,339.19977
"4219",79.50561,339.21313
"4220",78.870834,339.22644
"4221",78.32639,339.2398
"4222",77.874725,339.2531
"4223",77.503624,339.26648
"4224",77.208206,339.2798
"4225",76.9836,339.29315
"4226",76.81758,339.30646
"4227",76.70771,339.31982
"4228",76.63691,339.33313
"4229",76.58808,339.3465
"4230",76.53193,339.3598
"4231",76.436714,339.37317
"4232",76.299995,339.38647
"4233",76.19745,339.39984
"4234",76.34394,339.41315
"4235",77.0544,339.4265
"4236",78.59739,339.43982
"4237",81.02663,339.4532
"4238",84.102844,339.4665
"4239",87.35241,339.47986
"4240",90.20401,339.49316
"4241",92.18402,339.50653
"4242",93.0898,339.51984
"4243",92.97261,339.5332
"4244",92.04974,339.5465
"4245",90.56779,339.55988
"4246",88.76845,339.57318
"4247",86.85191,339.58655
"4248",84.98665,339.59985
"4249",83.284966,339.61322
"4250",81.812775,339.62653
"4251",80.604256,339.6399
"4252",79.68871,339.6532
"4253",79.097885,339.66656
"4254",78.86107,339.67987
"4255",78.9807,339.69324
"4256",79.412834,339.70654
"4257",80.062256,339.7199
"4258",80.780045,339.73322
"4259",81.42458,339.74658
"4260",81.87869,339.7599
"4261",82.08377,339.77325
"4262",82.022736,339.78656
"4263",81.72732,339.79993
"4264",81.24635,339.81323
"4265",80.64332,339.8266
"4266",79.971924,339.8399
"4267",79.276115,339.85327
"4268",78.59983,339.86658
"4269",77.97238,339.87994
"4270",77.41573,339.89325
"4271",76.944534,339.90662
"4272",76.56367,339.91992
"4273",76.263374,339.9333
"4274",76.033875,339.9466
"4275",75.860535,339.95996
"4276",75.73113,339.97327
"4277",75.63592,339.98663
"4278",75.55779,339.99994
"4279",75.491875,340.0133
"4280",75.43572,340.0266
"4281",75.4284,340.03998
"4282",75.62859,340.05328
"4283",76.317085,340.06665
"4284",77.77951,340.07996
"4285",80.13306,340.09332
"4286",83.23857,340.10663
"4287",86.69077,340.12
"4288",89.94034,340.1333
"4289",92.44282,340.14667
"4290",93.88327,340.15997
"4291",94.22751,340.17334
"4292",93.64889,340.18665
"4293",92.39887,340.2
"4294",90.736244,340.21332
"4295",88.89296,340.22668
"4296",87.05699,340.24
"4297",85.347984,340.25336
"4298",83.83917,340.26666
"4299",82.55985,340.28003
"4300",81.53689,340.29333
"4301",80.79225,340.3067
"4302",80.360115,340.32
"4303",80.26246,340.33337
"4304",80.47486,340.34668
"4305",80.92897,340.36005
"4306",81.50027,340.37335
"4307",82.04471,340.38672
"4308",82.4329,340.40002
"4309",82.59403,340.4134
"4310",82.49882,340.4267
"4311",82.16434,340.44006
"4312",81.634544,340.45337
"4313",80.96315,340.46674
"4314",80.21118,340.48004
"4315",79.42504,340.4934
"4316",78.6511,340.5067
"4317",77.925995,340.52008
"4318",77.279015,340.5334
"4319",76.7248,340.54675
"4320",76.2707,340.56006
"4321",75.914246,340.57343
"4322",75.63836,340.58673
"4323",75.423515,340.6001
"4324",75.24773,340.6134
"4325",75.09636,340.62677
"4326",74.9572,340.64008
"4327",74.830246,340.65344
"4328",74.74479,340.66675
"4329",74.82536,340.6801
"4330",75.3283,340.69342
"4331",76.558784,340.7068
"4332",78.69749,340.7201
"4333",81.67849,340.73346
"4334",85.172195,340.74677
"4335",88.63416,340.76013
"4336",91.48333,340.77344
"4337",93.30953,340.7868
"4338",93.99069,340.8001
"4339",93.63912,340.81348
"4340",92.49897,340.82678
"4341",90.84856,340.84015
"4342",88.956436,340.85345
"4343",87.0399,340.86682
"4344",85.24788,340.88013
"4345",83.66338,340.8935
"4346",82.33524,340.9068
"4347",81.270775,340.92017
"4348",80.49195,340.93347
"4349",80.02075,340.94684
"4350",79.869385,340.96014
"4351",80.01587,340.9735
"4352",80.38941,340.98682
"4353",80.8777,341.00018
"4354",81.34646,341.0135
"4355",81.67849,341.02686
"4356",81.80057,341.04016
"4357",81.68337,341.05353
"4358",81.32937,341.06683
"4359",80.7776,341.0802
"4360",80.079346,341.0935
"4361",79.29565,341.10687
"4362",78.487526,341.12018
"4363",77.70626,341.13354
"4364",76.98848,341.14685
"4365",76.35615,341.16022
"4366",75.81903,341.17352
"4367",75.36736,341.1869
"4368",74.99382,341.2002
"4369",74.683754,341.21356
"4370",74.424965,341.22687
"4371",74.20523,341.24023
"4372",74.00992,341.25354
"4373",73.831696,341.2669
"4374",73.67544,341.2802
"4375",73.60952,341.29358
"4376",73.83658,341.3069
"4377",74.669106,341.32025
"4378",76.387886,341.33356
"4379",79.05638,341.34692
"4380",82.46952,341.36023
"4381",86.16098,341.3736
"4382",89.53506,341.3869
"4383",92.05707,341.40027
"4384",93.436485,341.41357
"4385",93.6733,341.42694
"4386",92.95552,341.44025
"4387",91.55901,341.4536
"4388",89.767,341.46692
"4389",87.8407,341.4803
"4390",85.977875,341.4936
"4391",84.300606,341.50696
"4392",82.865036,341.52026
"4393",81.685814,341.53363
"4394",80.765396,341.54694
"4395",80.12085,341.5603
"4396",79.764404,341.5736
"4397",79.68871,341.58698
"4398",79.85962,341.60028
"4399",80.18677,341.61365
"4400",80.552986,341.62695
"4401",80.84352,341.64032
"4402",80.970474,341.65363
"4403",80.88747,341.667
"4404",80.58228,341.6803
"4405",80.07446,341.69366
"4406",79.412834,341.70697
"4407",78.64866,341.72034
"4408",77.838104,341.73364
"4409",77.03975,341.747
"4410",76.28779,341.7603
"4411",75.60662,341.77368
"4412",75.01091,341.787
"4413",74.49821,341.80035
"4414",74.06607,341.81366
"4415",73.70229,341.82703
"4416",73.39468,341.84033
"4417",73.13588,341.8537
"4418",72.90883,341.867
"4419",72.69642,341.88037
"4420",72.50843,341.89368
"4421",72.39124,341.90704
"4422",72.52796,341.92035
"4423",73.22621,341.93372
"4424",74.793625,341.94702
"4425",77.36935,341.9604
"4426",80.816666,341.9737
"4427",84.701,341.98706
"4428",88.411995,342.00037
"4429",91.34417,342.01373
"4430",93.12886,342.02704
"4431",93.68795,342.0404
"4432",93.189896,342.0537
"4433",91.91791,342.06708
"4434",90.194244,342.08038
"4435",88.29725,342.09375
"4436",86.4564,342.10706
"4437",84.8011,342.12042
"4438",83.39483,342.13373
"4439",82.230255,342.1471
"4440",81.290306,342.1604
"4441",80.56031,342.17377
"4442",80.05737,342.18707
"4443",79.78638,342.20044
"4444",79.73754,342.21375
"4445",79.85962,342.2271
"4446",80.059814,342.24042
"4447",80.22583,342.25378
"4448",80.274666,342.2671
"4449",80.15015,342.28046
"4450",79.84009,342.29376
"4451",79.35668,342.30713
"4452",78.729225,342.32043
"4453",78.00656,342.3338
"4454",77.22774,342.3471
"4455",76.439156,342.36047
"4456",75.67498,342.37378
"4457",74.97185,342.38715
"4458",74.34196,342.40045
"4459",73.79019,342.41382
"4460",73.31411,342.42712
"4461",72.89906,342.4405
"4462",72.53773,342.4538
"4463",72.21301,342.46716
"4464",71.91516,342.48047
"4465",71.65392,342.49384
"4466",71.45617,342.50714
"4467",71.44152,342.5205
"4468",71.868774,342.5338
"4469",73.06508,342.54718
"4470",75.25994,342.5605
"4471",78.44114,342.57385
"4472",82.30595,342.58716
"4473",86.30503,342.60052
"4474",89.78653,342.61383
"4475",92.242615,342.6272
"4476",93.44625,342.6405
"4477",93.46578,342.65387
"4478",92.55024,342.66718
"4479",91.02678,342.68054
"4480",89.22743,342.69385
"4481",87.41833,342.7072
"4482",85.77768,342.72052
"4483",84.37141,342.7339
"4484",83.1873,342.7472
"4485",82.176544,342.76056
"4486",81.30007,342.77386
"4487",80.55787,342.78723
"4488",79.98169,342.80054
"4489",79.603264,342.8139
"4490",79.41772,342.8272
"4491",79.37621,342.84058
"4492",79.39086,342.85388
"4493",79.37133,342.86725
"4494",79.24681,342.88055
"4495",78.9807,342.89392
"4496",78.56321,342.90723
"4497",78.00656,342.9206
"4498",77.34249,342.9339
"4499",76.610054,342.94727
"4500",75.85321,342.96057
"4501",75.11101,342.97394
"4502",74.41032,342.98724
"4503",73.76578,343.0006
"4504",73.18715,343.01392
"4505",72.672005,343.02728
"4506",72.217896,343.0406
"4507",71.81995,343.05396
"4508",71.468376,343.06726
"4509",71.15587,343.08063
"4510",70.87755,343.09393
"4511",70.63096,343.1073
"4512",70.46006,343.1206
"4513",70.504005,343.13397
"4514",71.05089,343.14728
